# Matter power spectrum P(k) at redshift z=99
# for k=1.04206e-05 to 53.4232 h/Mpc,
# number of wavenumbers equal to 243
#    1:k (h/Mpc)              2:P (Mpc/h)^3        
       1.042057218184e-05       7.036199063103e-03 
       1.125187501919e-05       7.577741080925e-03 
       1.214949517534e-05       8.160961903971e-03 
       1.311872312515e-05       8.789070917567e-03 
       1.416527139199e-05       9.465522162912e-03 
       1.529530821670e-05       1.019403634472e-02 
       1.651549391254e-05       1.097862178718e-02 
       1.783302012034e-05       1.182359084921e-02 
       1.925565219523e-05       1.273359262214e-02 
       2.079177497483e-05       1.371363207405e-02 
       2.245044219853e-05       1.476909885755e-02 
       2.424142986925e-05       1.590579931113e-02 
       2.617529387212e-05       1.712998402220e-02 
       2.826343218975e-05       1.844838540306e-02 
       3.051815208062e-05       1.986825598375e-02 
       3.295274261680e-05       2.139740389028e-02 
       3.558155300819e-05       2.304423884494e-02 
       3.842007717529e-05       2.481781755427e-02 
       4.148504506860e-05       2.672789401192e-02 
       4.479452127312e-05       2.878497078974e-02 
       4.836801147907e-05       3.100036252507e-02 
       5.222657744628e-05       3.338624729837e-02 
       5.639296113988e-05       3.595574642308e-02 
       6.089171876895e-05       3.872298851096e-02 
       6.574936551816e-05       4.170318609141e-02 
       7.099453182532e-05       4.491272215790e-02 
       7.665813212606e-05       4.836924208988e-02 
       8.277354706016e-05       5.209174189517e-02 
       8.937682021332e-05       5.610068323566e-02 
       9.650687055417e-05       6.041809255442e-02 
       1.042057218184e-04       6.506769489910e-02 
       1.125187501919e-04       7.007502835279e-02 
       1.214949517534e-04       7.546759674968e-02 
       1.311872312515e-04       8.127500764395e-02 
       1.416527139199e-04       8.752914024078e-02 
       1.529530821670e-04       9.426431253847e-02 
       1.651549391254e-04       1.015174697871e-01 
       1.783302012034e-04       1.093283789123e-01 
       1.925565219523e-04       1.177398427530e-01 
       2.079177497483e-04       1.267979250237e-01 
       2.245044219853e-04       1.365521975408e-01 
       2.424142986925e-04       1.470559942354e-01 
       2.617529387212e-04       1.583666930984e-01 
       2.826343218975e-04       1.705460082159e-01 
       3.051815208062e-04       1.836603027352e-01 
       3.295274261680e-04       1.977809248979e-01 
       3.558155300819e-04       2.129845569241e-01 
       3.842007717529e-04       2.293535874498e-01 
       4.148504506860e-04       2.469764979363e-01 
       4.479452127312e-04       2.659482729789e-01 
       4.836801147907e-04       2.863708204833e-01 
       5.222657744628e-04       3.083534042256e-01 
       5.639296113988e-04       3.320130943566e-01 
       6.089171876895e-04       3.574752027338e-01 
       6.574936551816e-04       3.848737417194e-01 
       7.099453182532e-04       4.143518337714e-01 
       7.665813212606e-04       4.460621292760e-01 
       8.277354706016e-04       4.801671589207e-01 
       8.937682021332e-04       5.168396292522e-01 
       9.650687055417e-04       5.562626301790e-01 
       1.042057218184e-03       5.986297066076e-01 
       1.125187501919e-03       6.441447774006e-01 
       1.214949517534e-03       6.930218319688e-01 
       1.311872312515e-03       7.454843341750e-01 
       1.416527139199e-03       8.017583450562e-01 
       1.529530821670e-03       8.620861552829e-01 
       1.651549391254e-03       9.267132662796e-01 
       1.783302012034e-03       9.958861158026e-01 
       1.925565219523e-03       1.069850076998e+00 
       2.079177497483e-03       1.148844950231e+00 
       2.245044219853e-03       1.233099298933e+00 
       2.424142986925e-03       1.322823335185e+00 
       2.617529387212e-03       1.418200354289e+00 
       2.826343218975e-03       1.519376431674e+00 
       3.051815208062e-03       1.626448354680e+00 
       3.295274261680e-03       1.739449454760e+00 
       3.558155300819e-03       1.858334350902e+00 
       3.842007717529e-03       1.982962008916e+00 
       4.148504506860e-03       2.113077647543e+00 
       4.479452127312e-03       2.248295995046e+00 
       4.836801147907e-03       2.388083582412e+00 
       5.222657744628e-03       2.531748088473e+00 
       5.639296113988e-03       2.678427072591e+00 
       6.089171876895e-03       2.827088742524e+00 
       6.574936551816e-03       2.976535804131e+00 
       7.099453182532e-03       3.125417353420e+00 
       7.665813212606e-03       3.272245767565e+00 
       8.277354706016e-03       3.415417967397e+00 
       8.937682021332e-03       3.553226282547e+00 
       9.650687055417e-03       3.683860423984e+00 
       1.042057218184e-02       3.805392078326e+00 
       1.125187501919e-02       3.915741979244e+00 
       1.214949517534e-02       4.012650164307e+00 
       1.311872312515e-02       4.093653182599e+00 
       1.416527139199e-02       4.156121241022e+00 
       1.529530821666e-02       4.197349916527e+00 
       1.651549391176e-02       4.214718712287e+00 
       1.783302010906e-02       4.205860971338e+00 
       1.925565206518e-02       4.168852417735e+00 
       2.079177376287e-02       4.102343189762e+00 
       2.245043293693e-02       4.005795905656e+00 
       2.424137103356e-02       3.879748266853e+00 
       2.617497906706e-02       3.726119181643e+00 
       2.826199580117e-02       3.548482718102e+00 
       3.051249938368e-02       3.352179837133e+00 
       3.293336996241e-02       3.144365200957e+00 
       3.552331487209e-02       2.933978221827e+00 
       3.826582157097e-02       2.731067577508e+00 
       4.112404724210e-02       2.545244027114e+00 
       4.404493043681e-02       2.383527551608e+00 
       4.697466956366e-02       2.248575234215e+00 
       4.987520970836e-02       2.138755982685e+00 
       5.272987737836e-02       2.049729677152e+00 
       5.553868475293e-02       1.976113735496e+00 
       5.831086442029e-02       1.912772920799e+00 
       6.105929316364e-02       1.855176491036e+00 
       6.379744397549e-02       1.799545201799e+00 
       6.653804686935e-02       1.742906248659e+00 
       6.929265030762e-02       1.683097822619e+00 
       7.207159148654e-02       1.618772758335e+00 
       7.488412586347e-02       1.549407109488e+00 
       7.773860156258e-02       1.475270826327e+00 
       8.064263089399e-02       1.397361441001e+00 
       8.360324180074e-02       1.317280339182e+00 
       8.662700527972e-02       1.237049766945e+00 
       8.972014008248e-02       1.158907091785e+00 
       9.288859773804e-02       1.085058711423e+00 
       9.613813119750e-02       1.017437832374e+00 
       9.947435009855e-02       9.575170461137e-01 
       1.029027651850e-01       9.061091209733e-01 
       1.064288239558e-01       8.633063783097e-01 
       1.100579392196e-01       8.284161567426e-01 
       1.137955119047e-01       8.000024931906e-01 
       1.176469492237e-01       7.759712498341e-01 
       1.216176790962e-01       7.537827642517e-01 
       1.257131615920e-01       7.307755902524e-01 
       1.299388980530e-01       7.046099347552e-01 
       1.343004384801e-01       6.737640108471e-01 
       1.388033877207e-01       6.379240545548e-01 
       1.434534109657e-01       5.981270783515e-01 
       1.482562390431e-01       5.565593656300e-01 
       1.532176739922e-01       5.160292724139e-01 
       1.583435953977e-01       4.792817130637e-01 
       1.636399679708e-01       4.482886456108e-01 
       1.691128508648e-01       4.237673670156e-01 
       1.747684092268e-01       4.049970183359e-01 
       1.806129284914e-01       3.899881586427e-01 
       1.866528319344e-01       3.761640750971e-01 
       1.928947020170e-01       3.607162894196e-01 
       1.993453060694e-01       3.419200049715e-01 
       2.060116268837e-01       3.199349708354e-01 
       2.129008988222e-01       2.966488071054e-01 
       2.200206500936e-01       2.745751535309e-01 
       2.273787519204e-01       2.556975274012e-01 
       2.349834754098e-01       2.408122061598e-01 
       2.428435570741e-01       2.292068293643e-01 
       2.509682741142e-01       2.189142275589e-01 
       2.593675308069e-01       2.078830629029e-01 
       2.680519576331e-01       1.951960676043e-01 
       2.770330251641e-01       1.814327355737e-01 
       2.863231752171e-01       1.682471713820e-01 
       2.959359724176e-01       1.570850172469e-01 
       3.058862801180e-01       1.480300498004e-01 
       3.161904656516e-01       1.400522843319e-01 
       3.268666412351e-01       1.318845634885e-01 
       3.379349485496e-01       1.230786816793e-01 
       3.494178972595e-01       1.143258579970e-01 
       3.613407706443e-01       1.064991509567e-01 
       3.737321153481e-01       9.981091821621e-02 
       3.866243373291e-01       9.360220465640e-02 
       4.000544328602e-01       8.732776005631e-02 
       4.140648925314e-01       8.108302676197e-02 
       4.287048285009e-01       7.533080862322e-02 
       4.440313919696e-01       7.015118539610e-02 
       4.601115706904e-01       6.524372253634e-02 
       4.770244875672e-01       6.041013608090e-02 
       4.948643640548e-01       5.582888663865e-02 
       5.137443698174e-01       5.161627522233e-02 
       5.338016567636e-01       4.758308005919e-02 
       5.552039731904e-01       4.369964958046e-02 
       5.781583674291e-01       4.005168883689e-02 
       6.029225949755e-01       3.657537422221e-02 
       6.298198624549e-01       3.324354141476e-02 
       6.592572810952e-01       3.007953178439e-02 
       6.917474165734e-01       2.704747561427e-02 
       7.279297173463e-01       2.415711209925e-02 
       7.685829635603e-01       2.139687363853e-02 
       8.146102291160e-01       1.877746443158e-02 
       8.669680479360e-01       1.631124035289e-02 
       9.265193830902e-01       1.402336392625e-02 
       9.938458885582e-01       1.194214081029e-02 
       1.069144954153e+00       1.009137060470e-02 
       1.152332760331e+00       8.480151822156e-03 
       1.243295708723e+00       7.100884845370e-03 
       1.342095772803e+00       5.932234069244e-03 
       1.449029203296e+00       4.948151267219e-03 
       1.564586374602e+00       4.122274670472e-03 
       1.689391516011e+00       3.430496724870e-03 
       1.824160856864e+00       2.851929366437e-03 
       1.969683202239e+00       2.368630429799e-03 
       2.126814942975e+00       1.965395800907e-03 
       2.296481943529e+00       1.629315185002e-03 
       2.479684162707e+00       1.349532710976e-03 
       2.677501369259e+00       1.116842122103e-03 
       2.891099475621e+00       9.235192086867e-04 
       3.121737405594e+00       7.630495805518e-04 
       3.370774513870e+00       6.299768926955e-04 
       3.639678597884e+00       5.197259363774e-04 
       3.930034548851e+00       4.284583574522e-04 
       4.243553692939e+00       3.529695342522e-04 
       4.582083877640e+00       2.905879863747e-04 
       4.947620362778e+00       2.390721997070e-04 
       5.342317580354e+00       1.965638327421e-04 
       5.768501832533e+00       1.615114468970e-04 
       6.228685002611e+00       1.326311420510e-04 
       6.725579359783e+00       1.088507924312e-04 
       7.262113544957e+00       8.928408202140e-05 
       7.841449831849e+00       7.319358354379e-05 
       8.467002765069e+00       5.997104131897e-05 
       9.142459285082e+00       4.911148145617e-05 
       9.871800458623e+00       4.019818354011e-05 
       1.065932494268e+01       3.288597754899e-05 
       1.150967432028e+01       2.689113760702e-05 
       1.242786045752e+01       2.197872049739e-05 
       1.341929504291e+01       1.795557282999e-05 
       1.448982148328e+01       1.466235529710e-05 
       1.564574934421e+01       1.196797097009e-05 
       1.689389153788e+01       9.764503560995e-06 
       1.824160447766e+01       7.963518667325e-06 
       1.969683143598e+01       6.492068567599e-06 
       2.126814936113e+01       5.290402751400e-06 
       2.296481942883e+01       4.309540251797e-06 
       2.479684162659e+01       3.509198042387e-06 
       2.677501369256e+01       2.856452202747e-06 
       2.891099475621e+01       2.324273075024e-06 
       3.121737405594e+01       1.890585473044e-06 
       3.370774513870e+01       1.537299286942e-06 
       3.639678597884e+01       1.249576383416e-06 
       3.930034548851e+01       1.015375611549e-06 
       4.243553692939e+01       8.247973503327e-07 
       4.582083877640e+01       6.697669063852e-07 
       4.947620362778e+01       5.437058643325e-07 
       5.342317580354e+01       4.412232513486e-07 
