# Matter power spectrum P(k) at redshift z=99
# for k=1.04206e-05 to 53.4232 h/Mpc,
# number of wavenumbers equal to 243
#    1:k (h/Mpc)              2:P (Mpc/h)^3        
       1.042057218184e-05       7.036269777388e-03 
       1.125187501919e-05       7.577817196907e-03 
       1.214949517534e-05       8.161043875360e-03 
       1.311872312515e-05       8.789159189821e-03 
       1.416527139199e-05       9.465617207956e-03 
       1.529530821670e-05       1.019413869078e-02 
       1.651549391254e-05       1.097873214035e-02 
       1.783302012034e-05       1.182370944849e-02 
       1.925565219523e-05       1.273372037814e-02 
       2.079177497483e-05       1.371376911731e-02 
       2.245044219853e-05       1.476924689954e-02 
       2.424142986925e-05       1.590595813309e-02 
       2.617529387212e-05       1.713015568382e-02 
       2.826343218975e-05       1.844856997874e-02 
       3.051815208062e-05       1.986845459956e-02 
       3.295274261680e-05       2.139761758803e-02 
       3.558155300819e-05       2.304446907594e-02 
       3.842007717529e-05       2.481806508774e-02 
       4.148504506860e-05       2.672815955610e-02 
       4.479452127312e-05       2.878525666884e-02 
       4.836801147907e-05       3.100066916211e-02 
       5.222657744628e-05       3.338657665097e-02 
       5.639296113988e-05       3.595610079563e-02 
       6.089171876895e-05       3.872336819486e-02 
       6.574936551816e-05       4.170359392823e-02 
       7.099453182532e-05       4.491315983191e-02 
       7.665813212606e-05       4.836971093680e-02 
       8.277354706016e-05       5.209224411845e-02 
       8.937682021332e-05       5.610121970680e-02 
       9.650687055417e-05       6.041866593288e-02 
       1.042057218184e-04       6.506830576541e-02 
       1.125187501919e-04       7.007567840323e-02 
       1.214949517534e-04       7.546828709134e-02 
       1.311872312515e-04       8.127573872806e-02 
       1.416527139199e-04       8.752991231585e-02 
       1.529530821670e-04       9.426512515107e-02 
       1.651549391254e-04       1.015183201993e-01 
       1.783302012034e-04       1.093292642580e-01 
       1.925565219523e-04       1.177407580604e-01 
       2.079177497483e-04       1.267988624480e-01 
       2.245044219853e-04       1.365531468066e-01 
       2.424142986925e-04       1.470569407385e-01 
       2.617529387212e-04       1.583676170711e-01 
       2.826343218975e-04       1.705468839753e-01 
       3.051815208062e-04       1.836610956617e-01 
       3.295274261680e-04       1.977815905351e-01 
       3.558155300819e-04       2.129850370802e-01 
       3.842007717529e-04       2.293538076389e-01 
       4.148504506860e-04       2.469763620211e-01 
       4.479452127312e-04       2.659476582704e-01 
       4.836801147907e-04       2.863695702285e-01 
       5.222657744628e-04       3.083513192530e-01 
       5.639296113988e-04       3.320099225782e-01 
       6.089171876895e-04       3.574706234449e-01 
       6.574936551816e-04       3.848673493395e-01 
       7.099453182532e-04       4.143431160043e-01 
       7.665813212606e-04       4.460504401690e-01 
       8.277354706016e-04       4.801516813298e-01 
       8.937682021332e-04       5.168193355948e-01 
       9.650687055417e-04       5.562362249354e-01 
       1.042057218184e-03       5.985955589822e-01 
       1.125187501919e-03       6.441008367529e-01 
       1.214949517534e-03       6.929655204536e-01 
       1.311872312515e-03       7.454124127988e-01 
       1.416527139199e-03       8.016810275163e-01 
       1.529530821670e-03       8.620074219574e-01 
       1.651549391254e-03       9.266336201196e-01 
       1.783302012034e-03       9.958059448148e-01 
       1.925565219523e-03       1.069769678361e+00 
       2.079177497483e-03       1.148764528433e+00 
       2.245044219853e-03       1.233018956171e+00 
       2.424142986925e-03       1.322743091832e+00 
       2.617529387212e-03       1.418120117327e+00 
       2.826343218975e-03       1.519295981256e+00 
       3.051815208062e-03       1.626367225758e+00 
       3.295274261680e-03       1.739367085169e+00 
       3.558155300819e-03       1.858249859074e+00 
       3.842007717529e-03       1.982874050385e+00 
       4.148504506860e-03       2.112984427898e+00 
       4.479452127312e-03       2.248194691964e+00 
       4.836801147907e-03       2.387971320892e+00 
       5.222657744628e-03       2.531620218148e+00 
       5.639296113988e-03       2.678276999058e+00 
       6.089171876895e-03       2.826908335629e+00 
       6.574936551816e-03       2.976313416081e+00 
       7.099453182532e-03       3.125136954089e+00 
       7.665813212606e-03       3.271887657345e+00 
       8.277354706016e-03       3.414954261064e+00 
       8.937682021332e-03       3.552621309300e+00 
       9.650687055417e-03       3.683067149337e+00 
       1.042057218184e-02       3.804350398299e+00 
       1.125187501919e-02       3.914373218491e+00 
       1.214949517534e-02       4.010852088433e+00 
       1.311872312515e-02       4.091295866270e+00 
       1.416527139199e-02       4.153038252501e+00 
       1.529530821666e-02       4.193331888228e+00 
       1.651549391176e-02       4.209499188661e+00 
       1.783302010906e-02       4.199122241458e+00 
       1.925565206518e-02       4.160189153511e+00 
       2.079177376287e-02       4.091270097278e+00 
       2.245043293693e-02       3.991738075119e+00 
       2.424137103356e-02       3.862025278581e+00 
       2.617497906706e-02       3.703958929072e+00 
       2.826199580119e-02       3.520973858293e+00 
       3.051249938375e-02       3.318353824895e+00 
       3.293336996262e-02       3.103214438408e+00 
       3.552331487266e-02       2.884484874923e+00 
       3.826582157228e-02       2.672262642318e+00 
       4.112404724473e-02       2.476370614759e+00 
       4.404493044138e-02       2.304098321936e+00 
       4.697466957067e-02       2.158368917720e+00 
       4.987520971806e-02       2.037802420495e+00 
       5.272987739079e-02       1.938245509124e+00 
       5.553868476799e-02       1.854421491962e+00 
       5.831086443783e-02       1.781282570816e+00 
       6.105929318352e-02       1.714372867675e+00 
       6.379744399755e-02       1.649989336884e+00 
       6.653804689347e-02       1.585215138952e+00 
       6.929265033370e-02       1.517941013086e+00 
       7.207159151451e-02       1.446842255965e+00 
       7.488412589325e-02       1.371398707417e+00 
       7.773860159413e-02       1.291848665798e+00 
       8.064263092727e-02       1.209123210719e+00 
       8.360324183574e-02       1.124719240662e+00 
       8.662700531640e-02       1.040531849163e+00 
       8.972014012085e-02       9.586351091278e-01 
       9.288859777810e-02       8.810567528112e-01 
       9.613813123925e-02       8.095463013365e-01 
       9.947435014200e-02       7.453943477744e-01 
       1.029027652301e-01       6.892907675898e-01 
       1.064288240027e-01       6.412563813529e-01 
       1.100579392682e-01       6.006431357981e-01 
       1.137955119551e-01       5.661879826869e-01 
       1.176469492760e-01       5.361119358446e-01 
       1.216176791504e-01       5.083120416088e-01 
       1.257131616481e-01       4.806295955618e-01 
       1.299388981110e-01       4.512039707591e-01 
       1.343004385401e-01       4.188504567812e-01 
       1.388033877828e-01       3.833598396284e-01 
       1.434534110299e-01       3.455847627455e-01 
       1.482562391095e-01       3.072375033526e-01 
       1.532176740608e-01       2.704465232667e-01 
       1.583435954687e-01       2.371926431645e-01 
       1.636399680441e-01       2.087966808723e-01 
       1.691128509406e-01       1.856321785748e-01 
       1.747684093051e-01       1.671014676150e-01 
       1.806129285724e-01       1.518445713074e-01 
       1.866528320180e-01       1.382410100666e-01 
       1.928947021034e-01       1.245910732065e-01 
       1.993453061587e-01       1.099070808103e-01 
       2.060116269760e-01       9.432168504854e-02 
       2.129008989175e-01       7.889785913864e-02 
       2.200206501922e-01       6.493420396271e-02 
       2.273787520223e-01       5.331622683238e-02 
       2.349834755150e-01       4.425895385671e-02 
       2.428435571828e-01       3.730078061898e-02 
       2.509682742266e-01       3.154881246672e-02 
       2.593675309230e-01       2.618878337768e-02 
       2.680519577530e-01       2.089333223590e-02 
       2.770330252880e-01       1.586381483957e-02 
       2.863231753450e-01       1.158127372052e-02 
       2.959359725497e-01       8.342656318111e-03 
       3.058862802544e-01       6.030878792967e-03 
       3.161904657924e-01       4.319655847085e-03 
       3.268666413804e-01       2.922203655108e-03 
       3.379349486994e-01       1.752545799109e-03 
       3.494178974139e-01       8.874291499421e-04 
       3.613407708034e-01       3.614812331676e-04 
       3.737321155121e-01       1.021392274773e-04 
       3.866243374979e-01       5.595269904441e-06 
       4.000544330338e-01       2.528663154417e-05 
       4.140648927098e-01       1.463189787829e-04 
       4.287048286841e-01       3.291011846470e-04 
       4.440313921574e-01       5.240168450828e-04 
       4.601115708827e-01       7.143365074207e-04 
       4.770244877639e-01       9.018518107789e-04 
       4.948643642554e-01       1.059911039422e-03 
       5.137443700216e-01       1.157001508470e-03 
       5.338016569706e-01       1.204113417216e-03 
       5.552039733995e-01       1.205333459008e-03 
       5.781583676391e-01       1.148561566044e-03 
       6.029225951850e-01       1.044457195618e-03 
       6.298198626618e-01       9.055049788773e-04 
       6.592572812968e-01       7.386360687466e-04 
       6.917474167662e-01       5.616800964087e-04 
       7.279297175260e-01       3.888281886185e-04 
       7.685829637218e-01       2.370582572163e-04 
       8.146102292538e-01       1.192217712464e-04 
       8.669680480455e-01       4.312805519051e-05 
       9.265193831693e-01       7.105813700055e-06 
       9.938458886090e-01       1.929642036619e-07 
       1.069144954181e+00       6.252872882451e-06 
       1.152332760345e+00       1.194745353783e-05 
       1.243295708729e+00       1.193570116062e-05 
       1.342095772805e+00       7.786850409645e-06 
       1.449029203296e+00       3.280673013263e-06 
       1.564586374602e+00       6.976504572889e-07 
       1.689391516011e+00       6.585394259719e-09 
       1.824160856865e+00       1.232015527791e-07 
       1.969683202239e+00       2.282481235125e-07 
       2.126814942975e+00       1.545680178725e-07 
       2.296481943529e+00       4.812309772928e-08 
       2.479684162707e+00       3.443141946694e-09 
       2.677501369259e+00       1.203428084904e-09 
       2.891099475621e+00       3.265534778747e-09 
       3.121737405595e+00       1.363993287244e-09 
       3.370774513870e+00       5.822339578388e-11 
       3.639678597884e+00       9.334585421385e-11 
       3.930034548851e+00       1.438104079555e-10 
       4.243553692939e+00       4.821858593339e-11 
       4.582083877640e+00       4.226934586115e-12 
       4.947620362778e+00       4.376544439229e-13 
       5.342317580354e+00       7.328281261879e-13 
       5.768501832533e+00       2.097711354234e-12 
       6.228685002611e+00       1.900955003454e-12 
       6.725579359783e+00       1.162811354352e-12 
       7.262113544958e+00       8.686777326736e-13 
       7.841449831849e+00       3.069090809368e-13 
       8.467002765069e+00       5.250725734285e-13 
       9.142459285082e+00       1.585040421496e-13 
       9.871800458624e+00       1.956813776777e-14 
       1.065932494268e+01       2.463373121539e-13 
       1.150967432028e+01       1.489952965404e-13 
       1.242786045752e+01       5.693935364733e-14 
       1.341929504291e+01       1.062680710015e-16 
       1.448982148328e+01       2.433128721427e-13 
       1.564574934421e+01       6.764935457051e-14 
       1.689389153788e+01       1.043310942684e-14 
       1.824160447766e+01       1.110509856138e-14 
       1.969683143598e+01       1.023826903708e-16 
       2.126814936113e+01       7.061540784805e-15 
       2.296481942883e+01       1.431339466902e-13 
       2.479684162659e+01       3.460198470105e-15 
       2.677501369256e+01       3.768121810655e-15 
       2.891099475621e+01       3.825232619963e-17 
       3.121737405595e+01       6.293306762164e-17 
       3.370774513870e+01       1.079622128731e-15 
       3.639678597884e+01       2.662792933078e-17 
       3.930034548851e+01       3.185312963594e-15 
       4.243553692939e+01       3.724311680118e-17 
       4.582083877640e+01       5.437015864952e-20 
       4.947620362778e+01       1.575620614266e-17 
       5.342317580354e+01       1.573756424787e-14 
