# Matter power spectrum P(k) at redshift z=99
# for k=1.04206e-05 to 53.4232 h/Mpc,
# number of wavenumbers equal to 243
#    1:k (h/Mpc)              2:P (Mpc/h)^3        
       1.042057218184e-05       7.036260929412e-03 
       1.125187501919e-05       7.577807674685e-03 
       1.214949517534e-05       8.161033620367e-03 
       1.311872312515e-05       8.789148142149e-03 
       1.416527139199e-05       9.465605314446e-03 
       1.529530821670e-05       1.019412588022e-02 
       1.651549391254e-05       1.097871819660e-02 
       1.783302012034e-05       1.182369464608e-02 
       1.925565219523e-05       1.273370416834e-02 
       2.079177497483e-05       1.371375238049e-02 
       2.245044219853e-05       1.476922835651e-02 
       2.424142986925e-05       1.590593818750e-02 
       2.617529387212e-05       1.713013403726e-02 
       2.826343218975e-05       1.844854685101e-02 
       3.051815208062e-05       1.986842969040e-02 
       3.295274261680e-05       2.139759139788e-02 
       3.558155300819e-05       2.304444014597e-02 
       3.842007717529e-05       2.481803397812e-02 
       4.148504506860e-05       2.672812600751e-02 
       4.479452127312e-05       2.878522064375e-02 
       4.836801147907e-05       3.100063001240e-02 
       5.222657744628e-05       3.338653470847e-02 
       5.639296113988e-05       3.595605557656e-02 
       6.089171876895e-05       3.872331949878e-02 
       6.574936551816e-05       4.170354103629e-02 
       7.099453182532e-05       4.491310311044e-02 
       7.665813212606e-05       4.836964963011e-02 
       8.277354706016e-05       5.209217843662e-02 
       8.937682021332e-05       5.610114901092e-02 
       9.650687055417e-05       6.041858990857e-02 
       1.042057218184e-04       6.506822426535e-02 
       1.125187501919e-04       7.007559021782e-02 
       1.214949517534e-04       7.546819264288e-02 
       1.311872312515e-04       8.127563721461e-02 
       1.416527139199e-04       8.752980291626e-02 
       1.529530821670e-04       9.426500750798e-02 
       1.651549391254e-04       1.015181935261e-01 
       1.783302012034e-04       1.093291280192e-01 
       1.925565219523e-04       1.177406113770e-01 
       2.079177497483e-04       1.267987049437e-01 
       2.245044219853e-04       1.365529774710e-01 
       2.424142986925e-04       1.470567586983e-01 
       2.617529387212e-04       1.583674216515e-01 
       2.826343218975e-04       1.705466741312e-01 
       3.051815208062e-04       1.836608704947e-01 
       3.295274261680e-04       1.977813491794e-01 
       3.558155300819e-04       2.129847782550e-01 
       3.842007717529e-04       2.293535305426e-01 
       4.148504506860e-04       2.469760655676e-01 
       4.479452127312e-04       2.659473415023e-01 
       4.836801147907e-04       2.863692323900e-01 
       5.222657744628e-04       3.083509591931e-01 
       5.639296113988e-04       3.320095401213e-01 
       6.089171876895e-04       3.574702177472e-01 
       6.574936551816e-04       3.848669203741e-01 
       7.099453182532e-04       4.143426641708e-01 
       7.665813212606e-04       4.460499662631e-01 
       8.277354706016e-04       4.801511870535e-01 
       8.937682021332e-04       5.168188240261e-01 
       9.650687055417e-04       5.562356987901e-01 
       1.042057218184e-03       5.985950254489e-01 
       1.125187501919e-03       6.441003044474e-01 
       1.214949517534e-03       6.929649990758e-01 
       1.311872312515e-03       7.454119173502e-01 
       1.416527139199e-03       8.016805663161e-01 
       1.529530821670e-03       8.620070327584e-01 
       1.651549391254e-03       9.266333534575e-01 
       1.783302012034e-03       9.958058761181e-01 
       1.925565219523e-03       1.069769906536e+00 
       2.079177497483e-03       1.148765179436e+00 
       2.245044219853e-03       1.233020201375e+00 
       2.424142986925e-03       1.322745166207e+00 
       2.617529387212e-03       1.418123334331e+00 
       2.826343218975e-03       1.519300754202e+00 
       3.051815208062e-03       1.626374120677e+00 
       3.295274261680e-03       1.739376799166e+00 
       3.558155300819e-03       1.858263553835e+00 
       3.842007717529e-03       1.982892997552e+00 
       4.148504506860e-03       2.113010517629e+00 
       4.479452127312e-03       2.248230592511e+00 
       4.836801147907e-03       2.388020500109e+00 
       5.222657744628e-03       2.531687171853e+00 
       5.639296113988e-03       2.678368271650e+00 
       6.089171876895e-03       2.827032408426e+00 
       6.574936551816e-03       2.976481704050e+00 
       7.099453182532e-03       3.125365318980e+00 
       7.665813212606e-03       3.272196107273e+00 
       8.277354706016e-03       3.415370481558e+00 
       8.937682021332e-03       3.553180999304e+00 
       9.650687055417e-03       3.683816999553e+00 
       1.042057218184e-02       3.805351171871e+00 
       1.125187501919e-02       3.915703645808e+00 
       1.214949517534e-02       4.012614576941e+00 
       1.311872312515e-02       4.093620159292e+00 
       1.416527139199e-02       4.156089568647e+00 
       1.529530821666e-02       4.197321300691e+00 
       1.651549391176e-02       4.214691681487e+00 
       1.783302010906e-02       4.205838175568e+00 
       1.925565206518e-02       4.168830337648e+00 
       2.079177376287e-02       4.102324967541e+00 
       2.245043293693e-02       4.005780033654e+00 
       2.424137103356e-02       3.879728037174e+00 
       2.617497906706e-02       3.726109009326e+00 
       2.826199580119e-02       3.548481011264e+00 
       3.051249938375e-02       3.352158717261e+00 
       3.293336996262e-02       3.144354501774e+00 
       3.552331487266e-02       2.933973970430e+00 
       3.826582157228e-02       2.731057713549e+00 
       4.112404724473e-02       2.545235901328e+00 
       4.404493044138e-02       2.383526446256e+00 
       4.697466957067e-02       2.248567799003e+00 
       4.987520971806e-02       2.138746838426e+00 
       5.272987739079e-02       2.049721742689e+00 
       5.553868476799e-02       1.976112471003e+00 
       5.831086443783e-02       1.912771772271e+00 
       6.105929318352e-02       1.855172613106e+00 
       6.379744399755e-02       1.799541157612e+00 
       6.653804689347e-02       1.742905233604e+00 
       6.929265033370e-02       1.683096166676e+00 
       7.207159151451e-02       1.618769425832e+00 
       7.488412589325e-02       1.549404583670e+00 
       7.773860159413e-02       1.475269410364e+00 
       8.064263092727e-02       1.397361154148e+00 
       8.360324183574e-02       1.317277225394e+00 
       8.662700531640e-02       1.237048242843e+00 
       8.972014012085e-02       1.158905658096e+00 
       9.288859777810e-02       1.085057116832e+00 
       9.613813123925e-02       1.017439148089e+00 
       9.947435014200e-02       9.575158235569e-01 
       1.029027652301e-01       9.061077770627e-01 
       1.064288240027e-01       8.633033274694e-01 
       1.100579392682e-01       8.284152472680e-01 
       1.137955119551e-01       8.000013399120e-01 
       1.176469492760e-01       7.759701787243e-01 
       1.216176791504e-01       7.537825731123e-01 
       1.257131616481e-01       7.307740665918e-01 
       1.299388981110e-01       7.046084862779e-01 
       1.343004385401e-01       6.737621522617e-01 
       1.388033877828e-01       6.379226194602e-01 
       1.434534110299e-01       5.981247707685e-01 
       1.482562391095e-01       5.565574987542e-01 
       1.532176740608e-01       5.160289107104e-01 
       1.583435954687e-01       4.792814147923e-01 
       1.636399680441e-01       4.482883313311e-01 
       1.691128509406e-01       4.237669718108e-01 
       1.747684093051e-01       4.049968458752e-01 
       1.806129285724e-01       3.899887932113e-01 
       1.866528320180e-01       3.761603701501e-01 
       1.928947021034e-01       3.607123053624e-01 
       1.993453061587e-01       3.419146082354e-01 
       2.060116269760e-01       3.199320447247e-01 
       2.129008989175e-01       2.966489022047e-01 
       2.200206501922e-01       2.745754605843e-01 
       2.273787520223e-01       2.556972510320e-01 
       2.349834755150e-01       2.408120860129e-01 
       2.428435571828e-01       2.292067634424e-01 
       2.509682742266e-01       2.189113663226e-01 
       2.593675309230e-01       2.078808826179e-01 
       2.680519577530e-01       1.951955726063e-01 
       2.770330252880e-01       1.814327401028e-01 
       2.863231753450e-01       1.682471015130e-01 
       2.959359725497e-01       1.570849572168e-01 
       3.058862802544e-01       1.480301856771e-01 
       3.161904657924e-01       1.400523818622e-01 
       3.268666413804e-01       1.318848958060e-01 
       3.379349486994e-01       1.230790403266e-01 
       3.494178974139e-01       1.143258852954e-01 
       3.613407708034e-01       1.064990750176e-01 
       3.737321155121e-01       9.981085462395e-02 
       3.866243374979e-01       9.360215625225e-02 
       4.000544330338e-01       8.732775125746e-02 
       4.140648927098e-01       8.108294867900e-02 
       4.287048286841e-01       7.533075984409e-02 
       4.440313921574e-01       7.015117432595e-02 
       4.601115708827e-01       6.524372559349e-02 
       4.770244877639e-01       6.041011616216e-02 
       4.948643642554e-01       5.582886784696e-02 
       5.137443700216e-01       5.161627124575e-02 
       5.338016569706e-01       4.758305138687e-02 
       5.552039733995e-01       4.369964136717e-02 
       5.781583676391e-01       4.005167457817e-02 
       6.029225951850e-01       3.657534615509e-02 
       6.298198626618e-01       3.324350431674e-02 
       6.592572812968e-01       3.007949739920e-02 
       6.917474167662e-01       2.704745832143e-02 
       7.279297175260e-01       2.415709895733e-02 
       7.685829637218e-01       2.139685772846e-02 
       8.146102292538e-01       1.877745217376e-02 
       8.669680480455e-01       1.631131685121e-02 
       9.265193831693e-01       1.402335249997e-02 
       9.938458886090e-01       1.194212796314e-02 
       1.069144954181e+00       1.009135770704e-02 
       1.152332760345e+00       8.480136539584e-03 
       1.243295708729e+00       7.100876401175e-03 
       1.342095772805e+00       5.932208704249e-03 
       1.449029203296e+00       4.948143853791e-03 
       1.564586374602e+00       4.122260904771e-03 
       1.689391516011e+00       3.430488573172e-03 
       1.824160856865e+00       2.851927907511e-03 
       1.969683202239e+00       2.368625348912e-03 
       2.126814942975e+00       1.965385861728e-03 
       2.296481943529e+00       1.629311036042e-03 
       2.479684162707e+00       1.349531626313e-03 
       2.677501369259e+00       1.116838090108e-03 
       2.891099475621e+00       9.235139439267e-04 
       3.121737405595e+00       7.630446022246e-04 
       3.370774513870e+00       6.299720845559e-04 
       3.639678597884e+00       5.197205510446e-04 
       3.930034548851e+00       4.284533558637e-04 
       4.243553692939e+00       3.529648074673e-04 
       4.582083877640e+00       2.905832936343e-04 
       4.947620362778e+00       2.390676283771e-04 
       5.342317580354e+00       1.965593923173e-04 
       5.768501832533e+00       1.615072146724e-04 
       6.228685002611e+00       1.326266268673e-04 
       6.725579359783e+00       1.088466092655e-04 
       7.262113544958e+00       8.927995393114e-05 
       7.841449831849e+00       7.318976142529e-05 
       8.467002765069e+00       5.996710318176e-05 
       9.142459285082e+00       4.910768442087e-05 
       9.871800458624e+00       4.019435327150e-05 
       1.065932494268e+01       3.288241382033e-05 
       1.150967432028e+01       2.688761749341e-05 
       1.242786045752e+01       2.197527687055e-05 
       1.341929504291e+01       1.795220310817e-05 
       1.448982148328e+01       1.465907857351e-05 
       1.564574934421e+01       1.196477712461e-05 
       1.689389153788e+01       9.761390713398e-06 
       1.824160447766e+01       7.960490769867e-06 
       1.969683143598e+01       6.489142688365e-06 
       2.126814936113e+01       5.287549448059e-06 
       2.296481942883e+01       4.306792794039e-06 
       2.479684162659e+01       3.506539090281e-06 
       2.677501369256e+01       2.853882868646e-06 
       2.891099475621e+01       2.321760613087e-06 
       3.121737405595e+01       1.888157608918e-06 
       3.370774513870e+01       1.534927559885e-06 
       3.639678597884e+01       1.247289992662e-06 
       3.930034548851e+01       1.013171086037e-06 
       4.243553692939e+01       8.226665012144e-07 
       4.582083877640e+01       6.677139122482e-07 
       4.947620362778e+01       5.417144100479e-07 
       5.342317580354e+01       4.393077286974e-07 
