# Matter power spectrum P(k) at redshift z=99
# for k=1.04206e-05 to 53.4232 h/Mpc,
# number of wavenumbers equal to 243
#    1:k (h/Mpc)              2:P (Mpc/h)^3        
       1.042057218184e-05       7.036260929426e-03 
       1.125187501919e-05       7.577807674701e-03 
       1.214949517534e-05       8.161033620384e-03 
       1.311872312515e-05       8.789148142167e-03 
       1.416527139199e-05       9.465605314465e-03 
       1.529530821670e-05       1.019412588024e-02 
       1.651549391254e-05       1.097871819662e-02 
       1.783302012034e-05       1.182369464611e-02 
       1.925565219523e-05       1.273370416836e-02 
       2.079177497483e-05       1.371375238052e-02 
       2.245044219853e-05       1.476922835654e-02 
       2.424142986925e-05       1.590593818753e-02 
       2.617529387212e-05       1.713013403730e-02 
       2.826343218975e-05       1.844854685105e-02 
       3.051815208062e-05       1.986842969044e-02 
       3.295274261680e-05       2.139759139792e-02 
       3.558155300819e-05       2.304444014602e-02 
       3.842007717529e-05       2.481803397817e-02 
       4.148504506860e-05       2.672812600756e-02 
       4.479452127312e-05       2.878522064381e-02 
       4.836801147907e-05       3.100063001246e-02 
       5.222657744628e-05       3.338653470854e-02 
       5.639296113988e-05       3.595605557664e-02 
       6.089171876895e-05       3.872331949886e-02 
       6.574936551816e-05       4.170354103637e-02 
       7.099453182532e-05       4.491310311054e-02 
       7.665813212606e-05       4.836964963021e-02 
       8.277354706016e-05       5.209217843673e-02 
       8.937682021332e-05       5.610114901103e-02 
       9.650687055417e-05       6.041858990869e-02 
       1.042057218184e-04       6.506822426548e-02 
       1.125187501919e-04       7.007559021796e-02 
       1.214949517534e-04       7.546819264304e-02 
       1.311872312515e-04       8.127563721478e-02 
       1.416527139199e-04       8.752980291644e-02 
       1.529530821670e-04       9.426500750818e-02 
       1.651549391254e-04       1.015181935263e-01 
       1.783302012034e-04       1.093291280194e-01 
       1.925565219523e-04       1.177406113773e-01 
       2.079177497483e-04       1.267987049439e-01 
       2.245044219853e-04       1.365529774713e-01 
       2.424142986925e-04       1.470567586986e-01 
       2.617529387212e-04       1.583674216519e-01 
       2.826343218975e-04       1.705466741315e-01 
       3.051815208062e-04       1.836608704950e-01 
       3.295274261680e-04       1.977813491798e-01 
       3.558155300819e-04       2.129847782554e-01 
       3.842007717529e-04       2.293535305431e-01 
       4.148504506860e-04       2.469760655681e-01 
       4.479452127312e-04       2.659473415028e-01 
       4.836801147907e-04       2.863692323905e-01 
       5.222657744628e-04       3.083509591937e-01 
       5.639296113988e-04       3.320095401219e-01 
       6.089171876895e-04       3.574702177479e-01 
       6.574936551816e-04       3.848669203748e-01 
       7.099453182532e-04       4.143426641715e-01 
       7.665813212606e-04       4.460499662639e-01 
       8.277354706016e-04       4.801511870543e-01 
       8.937682021332e-04       5.168188240269e-01 
       9.650687055417e-04       5.562356987909e-01 
       1.042057218184e-03       5.985950254497e-01 
       1.125187501919e-03       6.441003044483e-01 
       1.214949517534e-03       6.929649990766e-01 
       1.311872312515e-03       7.454119173509e-01 
       1.416527139199e-03       8.016805663170e-01 
       1.529530821670e-03       8.620070327589e-01 
       1.651549391254e-03       9.266333534578e-01 
       1.783302012034e-03       9.958058761180e-01 
       1.925565219523e-03       1.069769906527e+00 
       2.079177497483e-03       1.148765179434e+00 
       2.245044219853e-03       1.233020201372e+00 
       2.424142986925e-03       1.322745166203e+00 
       2.617529387212e-03       1.418123334326e+00 
       2.826343218975e-03       1.519300754194e+00 
       3.051815208062e-03       1.626374120666e+00 
       3.295274261680e-03       1.739376799187e+00 
       3.558155300819e-03       1.858263553975e+00 
       3.842007717529e-03       1.982892997524e+00 
       4.148504506860e-03       2.113010517654e+00 
       4.479452127312e-03       2.248230592461e+00 
       4.836801147907e-03       2.388020500016e+00 
       5.222657744628e-03       2.531687171549e+00 
       5.639296113988e-03       2.678368271528e+00 
       6.089171876895e-03       2.827032408259e+00 
       6.574936551816e-03       2.976481703833e+00 
       7.099453182532e-03       3.125365318690e+00 
       7.665813212606e-03       3.272196172567e+00 
       8.277354706016e-03       3.415370827006e+00 
       8.937682021332e-03       3.553181362850e+00 
       9.650687055417e-03       3.683816998654e+00 
       1.042057218184e-02       3.805351170685e+00 
       1.125187501919e-02       3.915703855412e+00 
       1.214949517534e-02       4.012614719988e+00 
       1.311872312515e-02       4.093620156629e+00 
       1.416527139199e-02       4.156088684757e+00 
       1.529530821666e-02       4.197321825524e+00 
       1.651549391176e-02       4.214691675729e+00 
       1.783302010906e-02       4.205838168191e+00 
       1.925565206518e-02       4.168827935909e+00 
       2.079177376287e-02       4.102321557664e+00 
       2.245043293693e-02       4.005780018679e+00 
       2.424137103356e-02       3.879728018539e+00 
       2.617497906706e-02       3.726100691989e+00 
       2.826199580119e-02       3.548473079323e+00 
       3.051249938375e-02       3.352159597115e+00 
       3.293336996262e-02       3.144349355969e+00 
       3.552331487266e-02       2.933975054957e+00 
       3.826582157228e-02       2.731060269123e+00 
       4.112404724473e-02       2.545237097106e+00 
       4.404493044138e-02       2.383526001564e+00 
       4.697466957067e-02       2.248561792668e+00 
       4.987520971806e-02       2.138745870168e+00 
       5.272987739079e-02       2.049721634136e+00 
       5.553868476799e-02       1.976110826859e+00 
       5.831086443783e-02       1.912771669146e+00 
       6.105929318352e-02       1.855172516013e+00 
       6.379744399755e-02       1.799541063971e+00 
       6.653804689347e-02       1.742904387972e+00 
       6.929265033370e-02       1.683095355050e+00 
       7.207159151451e-02       1.618770142284e+00 
       7.488412589325e-02       1.549403789264e+00 
       7.773860159413e-02       1.475268428944e+00 
       8.064263092727e-02       1.397360156318e+00 
       8.360324183574e-02       1.317277597885e+00 
       8.662700531640e-02       1.237047901983e+00 
       8.972014012085e-02       1.158904935905e+00 
       9.288859777810e-02       1.085056997248e+00 
       9.613813123925e-02       1.017439733601e+00 
       9.947435014200e-02       9.575144251600e-01 
       1.029027652301e-01       9.061075945279e-01 
       1.064288240027e-01       8.633039314014e-01 
       1.100579392682e-01       8.284152292998e-01 
       1.137955119551e-01       8.000006639272e-01 
       1.176469492760e-01       7.759705119692e-01 
       1.216176791504e-01       7.537817050689e-01 
       1.257131616481e-01       7.307736255829e-01 
       1.299388981110e-01       7.046079903632e-01 
       1.343004385401e-01       6.737616501269e-01 
       1.388033877828e-01       6.379211140924e-01 
       1.434534110299e-01       5.981245319080e-01 
       1.482562391095e-01       5.565570115363e-01 
       1.532176740608e-01       5.160285333159e-01 
       1.583435954687e-01       4.792811541741e-01 
       1.636399680441e-01       4.482879801349e-01 
       1.691128509406e-01       4.237667078356e-01 
       1.747684093051e-01       4.049962436827e-01 
       1.806129285724e-01       3.899875264723e-01 
       1.866528320180e-01       3.761603718446e-01 
       1.928947021034e-01       3.607119102538e-01 
       1.993453061587e-01       3.419144075121e-01 
       2.060116269760e-01       3.199317102901e-01 
       2.129008989175e-01       2.966493424023e-01 
       2.200206501922e-01       2.745748908326e-01 
       2.273787520223e-01       2.556970522400e-01 
       2.349834755150e-01       2.408116706715e-01 
       2.428435571828e-01       2.292064305895e-01 
       2.509682742266e-01       2.189111903455e-01 
       2.593675309230e-01       2.078800911705e-01 
       2.680519577530e-01       1.951949431537e-01 
       2.770330252880e-01       1.814324438294e-01 
       2.863231753450e-01       1.682470967339e-01 
       2.959359725497e-01       1.570843501167e-01 
       3.058862802544e-01       1.480297965991e-01 
       3.161904657924e-01       1.400521483727e-01 
       3.268666413804e-01       1.318840888690e-01 
       3.379349486994e-01       1.230787508137e-01 
       3.494178974139e-01       1.143255824809e-01 
       3.613407708034e-01       1.064988921293e-01 
       3.737321155121e-01       9.981058932212e-02 
       3.866243374979e-01       9.360206929290e-02 
       4.000544330338e-01       8.732750526585e-02 
       4.140648927098e-01       8.108275559972e-02 
       4.287048286841e-01       7.533054033378e-02 
       4.440313921574e-01       7.015094845243e-02 
       4.601115708827e-01       6.524347615583e-02 
       4.770244877639e-01       6.040987483737e-02 
       4.948643642554e-01       5.582862657363e-02 
       5.137443700216e-01       5.161600498780e-02 
       5.338016569706e-01       4.758281322967e-02 
       5.552039733995e-01       4.369939627055e-02 
       5.781583676391e-01       4.005143496568e-02 
       6.029225951850e-01       3.657511663661e-02 
       6.298198626618e-01       3.324326903635e-02 
       6.592572812968e-01       3.007928460146e-02 
       6.917474167662e-01       2.704722951419e-02 
       7.279297175260e-01       2.415686738480e-02 
       7.685829637218e-01       2.139662469255e-02 
       8.146102292538e-01       1.877722303468e-02 
       8.669680480455e-01       1.631109065769e-02 
       9.265193831693e-01       1.402312122694e-02 
       9.938458886090e-01       1.194190570335e-02 
       1.069144954181e+00       1.009114123693e-02 
       1.152332760345e+00       8.479923180509e-03 
       1.243295708729e+00       7.100667544901e-03 
       1.342095772805e+00       5.932004156655e-03 
       1.449029203296e+00       4.947942917286e-03 
       1.564586374602e+00       4.122072694229e-03 
       1.689391516011e+00       3.430300972817e-03 
       1.824160856865e+00       2.851738754405e-03 
       1.969683202239e+00       2.368449062287e-03 
       2.126814942975e+00       1.965213122019e-03 
       2.296481943529e+00       1.629142375077e-03 
       2.479684162707e+00       1.349367365351e-03 
       2.677501369259e+00       1.116679430424e-03 
       2.891099475621e+00       9.233613720980e-04 
       3.121737405595e+00       7.628966918210e-04 
       3.370774513870e+00       6.298291279708e-04 
       3.639678597884e+00       5.195823992468e-04 
       3.930034548851e+00       4.283199477269e-04 
       4.243553692939e+00       3.528358739942e-04 
       4.582083877640e+00       2.904590657295e-04 
       4.947620362778e+00       2.389477726398e-04 
       5.342317580354e+00       1.964437330299e-04 
       5.768501832533e+00       1.613960955628e-04 
       6.228685002611e+00       1.325196845786e-04 
       6.725579359783e+00       1.087433375524e-04 
       7.262113544958e+00       8.918062669449e-05 
       7.841449831849e+00       7.309421344225e-05 
       8.467002765069e+00       5.987524444995e-05 
       9.142459285082e+00       4.901935476676e-05 
       9.871800458624e+00       4.010979704884e-05 
       1.065932494268e+01       3.280079196006e-05 
       1.150967432028e+01       2.680951793805e-05 
       1.242786045752e+01       2.190033167432e-05 
       1.341929504291e+01       1.788010759402e-05 
       1.448982148328e+01       1.458996040776e-05 
       1.564574934421e+01       1.189869346501e-05 
       1.689389153788e+01       9.698156825962e-06 
       1.824160447766e+01       7.899843139558e-06 
       1.969683143598e+01       6.431077381537e-06 
       2.126814936113e+01       5.232071046468e-06 
       2.296481942883e+01       4.253736513272e-06 
       2.479684162659e+01       3.455778264691e-06 
       2.677501369256e+01       2.805424438995e-06 
       2.891099475621e+01       2.275518965181e-06 
       3.121737405595e+01       1.844033041380e-06 
       3.370774513870e+01       1.492873700481e-06 
       3.639678597884e+01       1.207244704348e-06 
       3.930034548851e+01       9.750537773068e-07 
       4.243553692939e+01       7.864198715196e-07 
       4.582083877640e+01       6.332730398855e-07 
       4.947620362778e+01       5.090442721425e-07 
       5.342317580354e+01       4.083376161524e-07 
