# Matter power spectrum P(k) at redshift z=99
# for k=1.04206e-05 to 53.4232 h/Mpc,
# number of wavenumbers equal to 243
#    1:k (h/Mpc)              2:P (Mpc/h)^3        
       1.042057218184e-05       7.036260929723e-03 
       1.125187501919e-05       7.577807675020e-03 
       1.214949517534e-05       8.161033620727e-03 
       1.311872312515e-05       8.789148142537e-03 
       1.416527139199e-05       9.465605314864e-03 
       1.529530821670e-05       1.019412588067e-02 
       1.651549391254e-05       1.097871819708e-02 
       1.783302012034e-05       1.182369464661e-02 
       1.925565219523e-05       1.273370416890e-02 
       2.079177497483e-05       1.371375238109e-02 
       2.245044219853e-05       1.476922835716e-02 
       2.424142986925e-05       1.590593818820e-02 
       2.617529387212e-05       1.713013403802e-02 
       2.826343218975e-05       1.844854685183e-02 
       3.051815208062e-05       1.986842969128e-02 
       3.295274261680e-05       2.139759139882e-02 
       3.558155300819e-05       2.304444014698e-02 
       3.842007717529e-05       2.481803397921e-02 
       4.148504506860e-05       2.672812600869e-02 
       4.479452127312e-05       2.878522064502e-02 
       4.836801147907e-05       3.100063001376e-02 
       5.222657744628e-05       3.338653470994e-02 
       5.639296113988e-05       3.595605557815e-02 
       6.089171876895e-05       3.872331950049e-02 
       6.574936551816e-05       4.170354103813e-02 
       7.099453182532e-05       4.491310311243e-02 
       7.665813212606e-05       4.836964963224e-02 
       8.277354706016e-05       5.209217843892e-02 
       8.937682021332e-05       5.610114901339e-02 
       9.650687055417e-05       6.041858991123e-02 
       1.042057218184e-04       6.506822426821e-02 
       1.125187501919e-04       7.007559022090e-02 
       1.214949517534e-04       7.546819264620e-02 
       1.311872312515e-04       8.127563721817e-02 
       1.416527139199e-04       8.752980292009e-02 
       1.529530821670e-04       9.426500751211e-02 
       1.651549391254e-04       1.015181935305e-01 
       1.783302012034e-04       1.093291280240e-01 
       1.925565219523e-04       1.177406113821e-01 
       2.079177497483e-04       1.267987049492e-01 
       2.245044219853e-04       1.365529774769e-01 
       2.424142986925e-04       1.470567587047e-01 
       2.617529387212e-04       1.583674216583e-01 
       2.826343218975e-04       1.705466741384e-01 
       3.051815208062e-04       1.836608705025e-01 
       3.295274261680e-04       1.977813491878e-01 
       3.558155300819e-04       2.129847782639e-01 
       3.842007717529e-04       2.293535305521e-01 
       4.148504506860e-04       2.469760655778e-01 
       4.479452127312e-04       2.659473415130e-01 
       4.836801147907e-04       2.863692324014e-01 
       5.222657744628e-04       3.083509592051e-01 
       5.639296113988e-04       3.320095401340e-01 
       6.089171876895e-04       3.574702177605e-01 
       6.574936551816e-04       3.848669203879e-01 
       7.099453182532e-04       4.143426641852e-01 
       7.665813212606e-04       4.460499662779e-01 
       8.277354706016e-04       4.801511870685e-01 
       8.937682021332e-04       5.168188240414e-01 
       9.650687055417e-04       5.562356988049e-01 
       1.042057218184e-03       5.985950254631e-01 
       1.125187501919e-03       6.441003044605e-01 
       1.214949517534e-03       6.929649990870e-01 
       1.311872312515e-03       7.454119173588e-01 
       1.416527139199e-03       8.016805663206e-01 
       1.529530821670e-03       8.620070327561e-01 
       1.651549391254e-03       9.266333534466e-01 
       1.783302012034e-03       9.958058760946e-01 
       1.925565219523e-03       1.069769906496e+00 
       2.079177497483e-03       1.148765179375e+00 
       2.245044219853e-03       1.233020202343e+00 
       2.424142986925e-03       1.322745166369e+00 
       2.617529387212e-03       1.418123334161e+00 
       2.826343218975e-03       1.519300753972e+00 
       3.051815208062e-03       1.626374120371e+00 
       3.295274261680e-03       1.739376798799e+00 
       3.558155300819e-03       1.858263553310e+00 
       3.842007717529e-03       1.982892996872e+00 
       4.148504506860e-03       2.113010516755e+00 
       4.479452127312e-03       2.248230591392e+00 
       4.836801147907e-03       2.388020498682e+00 
       5.222657744628e-03       2.531687169829e+00 
       5.639296113988e-03       2.678368269360e+00 
       6.089171876895e-03       2.827032405541e+00 
       6.574936551816e-03       2.976481700426e+00 
       7.099453182532e-03       3.125365314405e+00 
       7.665813212606e-03       3.272196169322e+00 
       8.277354706016e-03       3.415370474592e+00 
       8.937682021332e-03       3.553180990383e+00 
       9.650687055417e-03       3.683816988746e+00 
       1.042057218184e-02       3.805351155557e+00 
       1.125187501919e-02       3.915703840596e+00 
       1.214949517534e-02       4.012614701982e+00 
       1.311872312515e-02       4.093620134831e+00 
       1.416527139199e-02       4.156089538912e+00 
       1.529530821666e-02       4.197321264690e+00 
       1.651549391176e-02       4.214690516178e+00 
       1.783302010906e-02       4.205837613358e+00 
       1.925565206518e-02       4.168827883116e+00 
       2.079177376287e-02       4.102324893695e+00 
       2.245043293693e-02       4.005780233160e+00 
       2.424137103356e-02       3.879731633444e+00 
       2.617497906706e-02       3.726100595611e+00 
       2.826199580119e-02       3.548477624729e+00 
       3.051249938375e-02       3.352159495146e+00 
       3.293336996262e-02       3.144354318637e+00 
       3.552331487266e-02       2.933971119010e+00 
       3.826582157228e-02       2.731057829237e+00 
       4.112404724473e-02       2.545236931430e+00 
       4.404493044138e-02       2.383525383064e+00 
       4.697466957067e-02       2.248567470642e+00 
       4.987520971806e-02       2.138746427661e+00 
       5.272987739079e-02       2.049721345658e+00 
       5.553868476799e-02       1.976109112032e+00 
       5.831086443783e-02       1.912771323752e+00 
       6.105929318352e-02       1.855172143867e+00 
       6.379744399755e-02       1.799540661682e+00 
       6.653804689347e-02       1.742903953918e+00 
       6.929265033370e-02       1.683094897063e+00 
       7.207159151451e-02       1.618768144958e+00 
       7.488412589325e-02       1.549403187195e+00 
       7.773860159413e-02       1.475267873585e+00 
       8.064263092727e-02       1.397359600431e+00 
       8.360324183574e-02       1.317276561139e+00 
       8.662700531640e-02       1.237047265872e+00 
       8.972014012085e-02       1.158904275232e+00 
       9.288859777810e-02       1.085056311531e+00 
       9.613813123925e-02       1.017439196106e+00 
       9.947435014200e-02       9.575149900672e-01 
       1.029027652301e-01       9.061068325090e-01 
       1.064288240027e-01       8.633031708919e-01 
       1.100579392682e-01       8.284139114705e-01 
       1.137955119551e-01       7.999997982301e-01 
       1.176469492760e-01       7.759693591640e-01 
       1.216176791504e-01       7.537814804860e-01 
       1.257131616481e-01       7.307730477199e-01 
       1.299388981110e-01       7.046075379774e-01 
       1.343004385401e-01       6.737620787132e-01 
       1.388033877828e-01       6.379220154593e-01 
       1.434534110299e-01       5.981253630069e-01 
       1.482562391095e-01       5.565571424369e-01 
       1.532176740608e-01       5.160270804729e-01 
       1.583435954687e-01       4.792798785170e-01 
       1.636399680441e-01       4.482869097104e-01 
       1.691128509406e-01       4.237654749040e-01 
       1.747684093051e-01       4.049952186706e-01 
       1.806129285724e-01       3.899857338964e-01 
       1.866528320180e-01       3.761619593127e-01 
       1.928947021034e-01       3.607152027344e-01 
       1.993453061587e-01       3.419179993799e-01 
       2.060116269760e-01       3.199334625738e-01 
       2.129008989175e-01       2.966465554563e-01 
       2.200206501922e-01       2.745734986104e-01 
       2.273787520223e-01       2.556953089854e-01 
       2.349834755150e-01       2.408100778022e-01 
       2.428435571828e-01       2.292045334304e-01 
       2.509682742266e-01       2.189117550548e-01 
       2.593675309230e-01       2.078805489385e-01 
       2.680519577530e-01       1.951935760308e-01 
       2.770330252880e-01       1.814297228707e-01 
       2.863231753450e-01       1.682446102213e-01 
       2.959359725497e-01       1.570824396178e-01 
       3.058862802544e-01       1.480274992555e-01 
       3.161904657924e-01       1.400498179108e-01 
       3.268666413804e-01       1.318819550856e-01 
       3.379349486994e-01       1.230760925131e-01 
       3.494178974139e-01       1.143232140663e-01 
       3.613407708034e-01       1.064962525183e-01 
       3.737321155121e-01       9.980812634855e-02 
       3.866243374979e-01       9.359928547480e-02 
       4.000544330338e-01       8.732487585926e-02 
       4.140648927098e-01       8.108016897012e-02 
       4.287048286841e-01       7.532792246383e-02 
       4.440313921574e-01       7.014831728576e-02 
       4.601115708827e-01       6.524076473815e-02 
       4.770244877639e-01       6.040713642047e-02 
       4.948643642554e-01       5.582585282382e-02 
       5.137443700216e-01       5.161321049164e-02 
       5.338016569706e-01       4.757996742430e-02 
       5.552039733995e-01       4.369651640395e-02 
       5.781583676391e-01       4.004852108496e-02 
       6.029225951850e-01       3.657216772381e-02 
       6.298198626618e-01       3.324028386121e-02 
       6.592572812968e-01       3.007624185802e-02 
       6.917474167662e-01       2.704416176882e-02 
       7.279297175260e-01       2.415376096161e-02 
       7.685829637218e-01       2.139348105429e-02 
       8.146102292538e-01       1.877404121944e-02 
       8.669680480455e-01       1.630786893957e-02 
       9.265193831693e-01       1.401987204463e-02 
       9.938458886090e-01       1.193861299014e-02 
       1.069144954181e+00       1.008781252241e-02 
       1.152332760345e+00       8.476565668684e-03 
       1.243295708729e+00       7.097285942963e-03 
       1.342095772805e+00       5.928601841433e-03 
       1.449029203296e+00       4.944528010131e-03 
       1.564586374602e+00       4.118640629424e-03 
       1.689391516011e+00       3.426868465358e-03 
       1.824160856865e+00       2.848308022949e-03 
       1.969683202239e+00       2.365022532692e-03 
       2.126814942975e+00       1.961809052317e-03 
       2.296481943529e+00       1.625737964430e-03 
       2.479684162707e+00       1.345978154359e-03 
       2.677501369259e+00       1.113320418306e-03 
       2.891099475621e+00       9.200246581741e-04 
       3.121737405595e+00       7.595915813882e-04 
       3.370774513870e+00       6.265568985959e-04 
       3.639678597884e+00       5.163458264430e-04 
       3.930034548851e+00       4.251255960384e-04 
       4.243553692939e+00       3.496849221087e-04 
       4.582083877640e+00       2.873468851488e-04 
       4.947620362778e+00       2.358858616559e-04 
       5.342317580354e+00       1.934313392429e-04 
       5.768501832533e+00       1.584386330967e-04 
       6.228685002611e+00       1.296180560870e-04 
       6.725579359783e+00       1.059006129674e-04 
       7.262113544958e+00       8.639854439651e-05 
       7.841449831849e+00       7.037470387592e-05 
       8.467002765069e+00       5.722030051101e-05 
       9.142459285082e+00       4.643090014807e-05 
       9.871800458624e+00       3.758977913376e-05 
       1.065932494268e+01       3.035205916269e-05 
       1.150967432028e+01       2.443363150028e-05 
       1.242786045752e+01       1.960004534093e-05 
       1.341929504291e+01       1.565776839534e-05 
       1.448982148328e+01       1.244805158033e-05 
       1.564574934421e+01       9.839802139157e-06 
       1.689389153788e+01       7.725287997141e-06 
       1.824160447766e+01       6.016385285067e-06 
       1.969683143598e+01       4.640281729116e-06 
       2.126814936113e+01       3.537282705536e-06 
       2.296481942883e+01       2.658824572460e-06 
       2.479684162659e+01       1.964353857837e-06 
       2.677501369256e+01       1.420941134208e-06 
       2.891099475621e+01       1.001256746540e-06 
       3.121737405595e+01       6.825516978688e-07 
       3.370774513870e+01       4.464056136555e-07 
       3.639678597884e+01       2.764361799541e-07 
       3.930034548851e+01       1.590554686516e-07 
       4.243553692939e+01       8.254114250025e-08 
       4.582083877640e+01       3.662823843912e-08 
       4.947620362778e+01       1.240236560690e-08 
       5.342317580354e+01       2.263844714406e-09 
