# Matter power spectrum P(k) at redshift z=99
# for k=1.04206e-05 to 53.4232 h/Mpc,
# number of wavenumbers equal to 243
#    1:k (h/Mpc)              2:P (Mpc/h)^3        
       1.042057218184e-05       7.036263641279e-03 
       1.125187501919e-05       7.577810593554e-03 
       1.214949517534e-05       8.161036764017e-03 
       1.311872312515e-05       8.789151528454e-03 
       1.416527139199e-05       9.465608958473e-03 
       1.529530821670e-05       1.019412980618e-02 
       1.651549391254e-05       1.097872242216e-02 
       1.783302012034e-05       1.182369915084e-02 
       1.925565219523e-05       1.273370927600e-02 
       2.079177497483e-05       1.371375766802e-02 
       2.245044219853e-05       1.476923403867e-02 
       2.424142986925e-05       1.590594430067e-02 
       2.617529387212e-05       1.713014080540e-02 
       2.826343218975e-05       1.844855393351e-02 
       3.051815208062e-05       1.986843731823e-02 
       3.295274261680e-05       2.139759960047e-02 
       3.558155300819e-05       2.304444900971e-02 
       3.842007717529e-05       2.481804353380e-02 
       4.148504506860e-05       2.672813629380e-02 
       4.479452127312e-05       2.878523150376e-02 
       4.836801147907e-05       3.100064133094e-02 
       5.222657744628e-05       3.338654783733e-02 
       5.639296113988e-05       3.595606965485e-02 
       6.089171876895e-05       3.872333430325e-02 
       6.574936551816e-05       4.170355722354e-02 
       7.099453182532e-05       4.491312059630e-02 
       7.665813212606e-05       4.836966840778e-02 
       8.277354706016e-05       5.209219850370e-02 
       8.937682021332e-05       5.610117077229e-02 
       9.650687055417e-05       6.041861308879e-02 
       1.042057218184e-04       6.506824924576e-02 
       1.125187501919e-04       7.007561759225e-02 
       1.214949517534e-04       7.546822149877e-02 
       1.311872312515e-04       8.127566847223e-02 
       1.416527139199e-04       8.752983644403e-02 
       1.529530821670e-04       9.426504359356e-02 
       1.651549391254e-04       1.015182325425e-01 
       1.783302012034e-04       1.093291697693e-01 
       1.925565219523e-04       1.177406564323e-01 
       2.079177497483e-04       1.267987532561e-01 
       2.245044219853e-04       1.365530293726e-01 
       2.424142986925e-04       1.470568145855e-01 
       2.617529387212e-04       1.583674815422e-01 
       2.826343218975e-04       1.705467380481e-01 
       3.051815208062e-04       1.836609394594e-01 
       3.295274261680e-04       1.977814230386e-01 
       3.558155300819e-04       2.129848575920e-01 
       3.842007717529e-04       2.293536154844e-01 
       4.148504506860e-04       2.469761564194e-01 
       4.479452127312e-04       2.659474385945e-01 
       4.836801147907e-04       2.863693359405e-01 
       5.222657744628e-04       3.083510695604e-01 
       5.639296113988e-04       3.320096572605e-01 
       6.089171876895e-04       3.574703421248e-01 
       6.574936551816e-04       3.848670518916e-01 
       7.099453182532e-04       4.143428027132e-01 
       7.665813212606e-04       4.460501115895e-01 
       8.277354706016e-04       4.801513386470e-01 
       8.937682021332e-04       5.168189810600e-01 
       9.650687055417e-04       5.562358604147e-01 
       1.042057218184e-03       5.985951894784e-01 
       1.125187501919e-03       6.441004673445e-01 
       1.214949517534e-03       6.929651594677e-01 
       1.311872312515e-03       7.454120697502e-01 
       1.416527139199e-03       8.016807072909e-01 
       1.529530821670e-03       8.620071534216e-01 
       1.651549391254e-03       9.266334363515e-01 
       1.783302012034e-03       9.958058992558e-01 
       1.925565219523e-03       1.069769839189e+00 
       2.079177497483e-03       1.148764984903e+00 
       2.245044219853e-03       1.233019827701e+00 
       2.424142986925e-03       1.322744541067e+00 
       2.617529387212e-03       1.418122360145e+00 
       2.826343218975e-03       1.519299308679e+00 
       3.051815208062e-03       1.626372028410e+00 
       3.295274261680e-03       1.739373890213e+00 
       3.558155300819e-03       1.858259379755e+00 
       3.842007717529e-03       1.982887250801e+00 
       4.148504506860e-03       2.113002613473e+00 
       4.479452127312e-03       2.248219631723e+00 
       4.836801147907e-03       2.388005408483e+00 
       5.222657744628e-03       2.531666686539e+00 
       5.639296113988e-03       2.678340139320e+00 
       6.089171876895e-03       2.826994205304e+00 
       6.574936551816e-03       2.976429856395e+00 
       7.099453182532e-03       3.125294494763e+00 
       7.665813212606e-03       3.272100416371e+00 
       8.277354706016e-03       3.415241026736e+00 
       8.937682021332e-03       3.553006192108e+00 
       9.650687055417e-03       3.683581940346e+00 
       1.042057218184e-02       3.805037038915e+00 
       1.125187501919e-02       3.915285531738e+00 
       1.214949517534e-02       4.012059612610e+00 
       1.311872312515e-02       4.092887245089e+00 
       1.416527139199e-02       4.155126201453e+00 
       1.529530821666e-02       4.196059824904e+00 
       1.651549391176e-02       4.213048458858e+00 
       1.783302010906e-02       4.203709795286e+00 
       1.925565206518e-02       4.166084538998e+00 
       2.079177376287e-02       4.098811920057e+00 
       2.245043293693e-02       4.001318148464e+00 
       2.424137103356e-02       3.874095353806e+00 
       2.617497906706e-02       3.719049752367e+00 
       2.826199580119e-02       3.539705844583e+00 
       3.051249938375e-02       3.341368291589e+00 
       3.293336996262e-02       3.131193597448e+00 
       3.552331487266e-02       2.918122630133e+00 
       3.826582157228e-02       2.712187773810e+00 
       4.112404724473e-02       2.523104001695e+00 
       4.404493044138e-02       2.357941440317e+00 
       4.697466957067e-02       2.219448716519e+00 
       4.987520971806e-02       2.106077024744e+00 
       5.272987739079e-02       2.013544356937e+00 
       5.553868476799e-02       1.936502200691e+00 
       5.831086443783e-02       1.869844306033e+00 
       6.105929318352e-02       1.809046244216e+00 
       6.379744399755e-02       1.750366875555e+00 
       6.653804689347e-02       1.690843520792e+00 
       6.929265033370e-02       1.628327903926e+00 
       7.207159151451e-02       1.561480020366e+00 
       7.488412589325e-02       1.489776184293e+00 
       7.773860159413e-02       1.413476369650e+00 
       8.064263092727e-02       1.333554835182e+00 
       8.360324183574e-02       1.251580265690e+00 
       8.662700531640e-02       1.169536612156e+00 
       8.972014012085e-02       1.089606392447e+00 
       9.288859777810e-02       1.013938591889e+00 
       9.613813123925e-02       9.444053369700e-01 
       9.947435014200e-02       8.824165842093e-01 
       1.029027652301e-01       8.287423016526e-01 
       1.064288240027e-01       7.834478038683e-01 
       1.100579392682e-01       7.458546028152e-01 
       1.137955119551e-01       7.145787229531e-01 
       1.176469492760e-01       6.876311143190e-01 
       1.216176791504e-01       6.626199854393e-01 
       1.257131616481e-01       6.370514764129e-01 
       1.299388981110e-01       6.087495226501e-01 
       1.343004385401e-01       5.763090008696e-01 
       1.388033877828e-01       5.394558892927e-01 
       1.434534110299e-01       4.991664866979e-01 
       1.482562391095e-01       4.574659527240e-01 
       1.532176740608e-01       4.169294586727e-01 
       1.583435954687e-01       3.800300422982e-01 
       1.636399680441e-01       3.485068942336e-01 
       1.691128509406e-01       3.229569573040e-01 
       1.747684093051e-01       3.027127939847e-01 
       1.806129285724e-01       2.860146294316e-01 
       1.866528320180e-01       2.706573451256e-01 
       1.928947021034e-01       2.542647556817e-01 
       1.993453061587e-01       2.353996639886e-01 
       2.060116269760e-01       2.142225500811e-01 
       2.129008989175e-01       1.923050432794e-01 
       2.200206501922e-01       1.716938567018e-01 
       2.273787520223e-01       1.539391092263e-01 
       2.349834755150e-01       1.396154535183e-01 
       2.428435571828e-01       1.281289557067e-01 
       2.509682742266e-01       1.179781822706e-01 
       2.593675309230e-01       1.076580059074e-01 
       2.680519577530e-01       9.651655102740e-02 
       2.770330252880e-01       8.497513500527e-02 
       2.863231753450e-01       7.417659062347e-02 
       2.959359725497e-01       6.505957764648e-02 
       3.058862802544e-01       5.763240416986e-02 
       3.161904657924e-01       5.121053272319e-02 
       3.268666413804e-01       4.501336060688e-02 
       3.379349486994e-01       3.877868182883e-02 
       3.494178974139e-01       3.289552647020e-02 
       3.613407708034e-01       2.781633840115e-02 
       3.737321155121e-01       2.361535208684e-02 
       3.866243374979e-01       1.993744774514e-02 
       4.000544330338e-01       1.651355020840e-02 
       4.140648927098e-01       1.337628229988e-02 
       4.287048286841e-01       1.069885776303e-02 
       4.440313921574e-01       8.482554245198e-03 
       4.601115708827e-01       6.595099272369e-03 
       4.770244877639e-01       4.954942463833e-03 
       4.948643642554e-01       3.597008215519e-03 
       5.137443700216e-01       2.527794724505e-03 
       5.338016569706e-01       1.679245663052e-03 
       5.552039733995e-01       1.026063542734e-03 
       5.781583676391e-01       5.608601295918e-04 
       6.029225951850e-01       2.515349257388e-04 
       6.298198626618e-01       7.316122873003e-05 
       6.592572812968e-01       3.616179928673e-06 
       6.917474167662e-01       1.677973552483e-05 
       7.279297175260e-01       8.669277809206e-05 
       7.685829637218e-01       1.866427624910e-04 
       8.146102292538e-01       2.887197122341e-04 
       8.669680480455e-01       3.675714180989e-04 
       9.265193831693e-01       4.032715383309e-04 
       9.938458886090e-01       3.874786970393e-04 
       1.069144954181e+00       3.274828550358e-04 
       1.152332760345e+00       2.421064119302e-04 
       1.243295708729e+00       1.543548769265e-04 
       1.342095772805e+00       8.223275295218e-05 
       1.449029203296e+00       3.404663488370e-05 
       1.564586374602e+00       9.016323272732e-06 
       1.689391516011e+00       5.814677839080e-07 
       1.824160856865e+00       6.291269338249e-07 
       1.969683202239e+00       2.777386268192e-06 
       2.126814942975e+00       3.778512956035e-06 
       2.296481943529e+00       3.149626873277e-06 
       2.479684162707e+00       1.786076560621e-06 
       2.677501369259e+00       6.491732610810e-07 
       2.891099475621e+00       1.044515748359e-07 
       3.121737405595e+00       4.989217876105e-10 
       3.370774513870e+00       4.121629564944e-08 
       3.639678597884e+00       5.741683957086e-08 
       3.930034548851e+00       3.407645295200e-08 
       4.243553692939e+00       9.427657047582e-09 
       4.582083877640e+00       4.795979362914e-10 
       4.947620362778e+00       3.709354270827e-10 
       5.342317580354e+00       7.620682686962e-10 
       5.768501832533e+00       2.965634890230e-10 
       6.228685002611e+00       1.267394409621e-11 
       6.725579359783e+00       1.896586691372e-11 
       7.262113544958e+00       3.076304181416e-11 
       7.841449831849e+00       1.138487176598e-11 
       8.467002765069e+00       1.481998625773e-12 
       9.142459285082e+00       2.040018265397e-13 
       9.871800458624e+00       3.654760175435e-13 
       1.065932494268e+01       6.144016928849e-13 
       1.150967432028e+01       5.860859837011e-13 
       1.242786045752e+01       3.843617656670e-13 
       1.341929504291e+01       2.553748538517e-13 
       1.448982148328e+01       1.847489891766e-13 
       1.564574934421e+01       1.282320137533e-13 
       1.689389153788e+01       1.199181618145e-13 
       1.824160447766e+01       6.562939186723e-14 
       1.969683143598e+01       6.211626136360e-14 
       2.126814936113e+01       3.657744940553e-14 
       2.296481942883e+01       2.787409876399e-14 
       2.479684162659e+01       2.608577760273e-14 
       2.677501369256e+01       9.079855217750e-15 
       2.891099475621e+01       9.960150810599e-16 
       3.121737405595e+01       9.271994276272e-15 
       3.370774513870e+01       1.280035468761e-15 
       3.639678597884e+01       3.192959823206e-15 
       3.930034548851e+01       4.709519016281e-15 
       4.243553692939e+01       1.255944275464e-15 
       4.582083877640e+01       8.934382769575e-16 
       4.947620362778e+01       1.141372443639e-16 
       5.342317580354e+01       2.299573440717e-16 
