# Matter power spectrum P(k) at redshift z=99
# for k=1.04206e-05 to 53.4232 h/Mpc,
# number of wavenumbers equal to 243
#    1:k (h/Mpc)              2:P (Mpc/h)^3        
       1.042057218184e-05       7.036260952440e-03 
       1.125187501919e-05       7.577807699459e-03 
       1.214949517534e-05       8.161033647054e-03 
       1.311872312515e-05       8.789148170909e-03 
       1.416527139199e-05       9.465605345356e-03 
       1.529530821670e-05       1.019412591354e-02 
       1.651549391254e-05       1.097871823247e-02 
       1.783302012034e-05       1.182369468470e-02 
       1.925565219523e-05       1.273370420991e-02 
       2.079177497483e-05       1.371375242534e-02 
       2.245044219853e-05       1.476922840471e-02 
       2.424142986925e-05       1.590593823939e-02 
       2.617529387212e-05       1.713013409310e-02 
       2.826343218975e-05       1.844854691125e-02 
       3.051815208062e-05       1.986842975528e-02 
       3.295274261680e-05       2.139759146753e-02 
       3.558155300819e-05       2.304444022233e-02 
       3.842007717529e-05       2.481803405896e-02 
       4.148504506860e-05       2.672812609390e-02 
       4.479452127312e-05       2.878522073745e-02 
       4.836801147907e-05       3.100063011554e-02 
       5.222657744628e-05       3.338653481647e-02 
       5.639296113988e-05       3.595605569574e-02 
       6.089171876895e-05       3.872331962457e-02 
       6.574936551816e-05       4.170354117352e-02 
       7.099453182532e-05       4.491310326259e-02 
       7.665813212606e-05       4.836964978788e-02 
       8.277354706016e-05       5.209217860977e-02 
       8.937682021332e-05       5.610114919627e-02 
       9.650687055417e-05       6.041859010692e-02 
       1.042057218184e-04       6.506822447735e-02 
       1.125187501919e-04       7.007559044699e-02 
       1.214949517534e-04       7.546819288880e-02 
       1.311872312515e-04       8.127563747953e-02 
       1.416527139199e-04       8.752980320025e-02 
       1.529530821670e-04       9.426500781389e-02 
       1.651549391254e-04       1.015181938562e-01 
       1.783302012034e-04       1.093291283732e-01 
       1.925565219523e-04       1.177406117570e-01 
       2.079177497483e-04       1.267987053549e-01 
       2.245044219853e-04       1.365529779111e-01 
       2.424142986925e-04       1.470567591708e-01 
       2.617529387212e-04       1.583674221627e-01 
       2.826343218975e-04       1.705466746775e-01 
       3.051815208062e-04       1.836608710835e-01 
       3.295274261680e-04       1.977813498082e-01 
       3.558155300819e-04       2.129847789287e-01 
       3.842007717529e-04       2.293535312642e-01 
       4.148504506860e-04       2.469760663393e-01 
       4.479452127312e-04       2.659473423271e-01 
       4.836801147907e-04       2.863692332698e-01 
       5.222657744628e-04       3.083509601311e-01 
       5.639296113988e-04       3.320095411183e-01 
       6.089171876895e-04       3.574702188049e-01 
       6.574936551816e-04       3.848669214929e-01 
       7.099453182532e-04       4.143426653499e-01 
       7.665813212606e-04       4.460499675007e-01 
       8.277354706016e-04       4.801511883454e-01 
       8.937682021332e-04       5.168188253654e-01 
       9.650687055417e-04       5.562357001677e-01 
       1.042057218184e-03       5.985950268500e-01 
       1.125187501919e-03       6.441003058517e-01 
       1.214949517534e-03       6.929650004552e-01 
       1.311872312515e-03       7.454119186671e-01 
       1.416527139199e-03       8.016805675452e-01 
       1.529530821670e-03       8.620070338150e-01 
       1.651549391254e-03       9.266333542171e-01 
       1.783302012034e-03       9.958058764155e-01 
       1.925565219523e-03       1.069769906145e+00 
       2.079177497483e-03       1.148765178080e+00 
       2.245044219853e-03       1.233020199732e+00 
       2.424142986925e-03       1.322745161932e+00 
       2.617529387212e-03       1.418123327302e+00 
       2.826343218975e-03       1.519300743653e+00 
       3.051815208062e-03       1.626374105465e+00 
       3.295274261680e-03       1.739376777668e+00 
       3.558155300819e-03       1.858263523820e+00 
       3.842007717529e-03       1.982892956071e+00 
       4.148504506860e-03       2.113010491895e+00 
       4.479452127312e-03       2.248230546493e+00 
       4.836801147907e-03       2.388020423886e+00 
       5.222657744628e-03       2.531687242462e+00 
       5.639296113988e-03       2.678368160097e+00 
       6.089171876895e-03       2.827032493962e+00 
       6.574936551816e-03       2.976481623197e+00 
       7.099453182532e-03       3.125365095894e+00 
       7.665813212606e-03       3.272195847505e+00 
       8.277354706016e-03       3.415370159725e+00 
       8.937682021332e-03       3.553179859298e+00 
       9.650687055417e-03       3.683815274382e+00 
       1.042057218184e-02       3.805349052022e+00 
       1.125187501919e-02       3.915701133412e+00 
       1.214949517534e-02       4.012610951822e+00 
       1.311872312515e-02       4.093615427803e+00 
       1.416527139199e-02       4.156084261362e+00 
       1.529530821666e-02       4.197312525124e+00 
       1.651549391176e-02       4.214678143994e+00 
       1.783302010906e-02       4.205824736647e+00 
       1.925565206518e-02       4.168813087865e+00 
       2.079177376287e-02       4.102303082734e+00 
       2.245043293693e-02       4.005752514419e+00 
       2.424137103356e-02       3.879699004791e+00 
       2.617497906706e-02       3.726057845225e+00 
       2.826199580119e-02       3.548424845143e+00 
       3.051249938375e-02       3.352095756752e+00 
       3.293336996262e-02       3.144277642455e+00 
       3.552331487266e-02       2.933875588238e+00 
       3.826582157228e-02       2.730948102856e+00 
       4.112404724473e-02       2.545107795587e+00 
       4.404493044138e-02       2.383377014399e+00 
       4.697466957067e-02       2.248411073317e+00 
       4.987520971806e-02       2.138560434035e+00 
       5.272987739079e-02       2.049522124260e+00 
       5.553868476799e-02       1.975889129394e+00 
       5.831086443783e-02       1.912534925386e+00 
       6.105929318352e-02       1.854919488367e+00 
       6.379744399755e-02       1.799275610827e+00 
       6.653804689347e-02       1.742624472318e+00 
       6.929265033370e-02       1.682802827583e+00 
       7.207159151451e-02       1.618466465919e+00 
       7.488412589325e-02       1.549093004635e+00 
       7.773860159413e-02       1.474950196352e+00 
       8.064263092727e-02       1.397034509709e+00 
       8.360324183574e-02       1.316944949558e+00 
       8.662700531640e-02       1.236709991040e+00 
       8.972014012085e-02       1.158561577806e+00 
       9.288859777810e-02       1.084707345601e+00 
       9.613813123925e-02       1.017083009734e+00 
       9.947435014200e-02       9.571528616572e-01 
       1.029027652301e-01       9.057357224019e-01 
       1.064288240027e-01       8.629233689111e-01 
       1.100579392682e-01       8.280220032491e-01 
       1.137955119551e-01       7.995966402576e-01 
       1.176469492760e-01       7.755531908570e-01 
       1.216176791504e-01       7.533536269386e-01 
       1.257131616481e-01       7.303351043055e-01 
       1.299388981110e-01       7.041607558018e-01 
       1.343004385401e-01       6.733081894422e-01 
       1.388033877828e-01       6.374646602841e-01 
       1.434534110299e-01       5.976672632194e-01 
       1.482562391095e-01       5.561005705754e-01 
       1.532176740608e-01       5.155726512748e-01 
       1.583435954687e-01       4.788252592375e-01 
       1.636399680441e-01       4.478298397140e-01 
       1.691128509406e-01       4.233036936405e-01 
       1.747684093051e-01       4.045267382820e-01 
       1.806129285724e-01       3.895092007054e-01 
       1.866528320180e-01       3.756741354927e-01 
       1.928947021034e-01       3.602194218605e-01 
       1.993453061587e-01       3.414205398462e-01 
       2.060116269760e-01       3.194394922772e-01 
       2.129008989175e-01       2.961593009115e-01 
       2.200206501922e-01       2.740897359904e-01 
       2.273787520223e-01       2.552136070708e-01 
       2.349834755150e-01       2.403270610621e-01 
       2.428435571828e-01       2.287185455853e-01 
       2.509682742266e-01       2.184195037095e-01 
       2.593675309230e-01       2.073868368639e-01 
       2.680519577530e-01       1.947030109282e-01 
       2.770330252880e-01       1.809445126525e-01 
       2.863231753450e-01       1.677637089238e-01 
       2.959359725497e-01       1.566041650628e-01 
       3.058862802544e-01       1.475498274677e-01 
       3.161904657924e-01       1.395717326249e-01 
       3.268666413804e-01       1.314050404891e-01 
       3.379349486994e-01       1.226032974939e-01 
       3.494178974139e-01       1.138552491463e-01 
       3.613407708034e-01       1.060325270649e-01 
       3.737321155121e-01       9.934669434449e-02 
       3.866243374979e-01       9.314047530080e-02 
       4.000544330338e-01       8.686989384495e-02 
       4.140648927098e-01       8.063012007820e-02 
       4.287048286841e-01       7.488274059522e-02 
       4.440313921574e-01       6.970722506484e-02 
       4.601115708827e-01       6.480419668152e-02 
       4.770244877639e-01       5.997589495555e-02 
       4.948643642554e-01       5.540021880033e-02 
       5.137443700216e-01       5.119286243572e-02 
       5.338016569706e-01       4.716527764719e-02 
       5.552039733995e-01       4.328833496450e-02 
       5.781583676391e-01       3.964651504584e-02 
       6.029225951850e-01       3.617691772713e-02 
       6.298198626618e-01       3.285242569474e-02 
       6.592572812968e-01       2.969591995363e-02 
       6.917474167662e-01       2.667183901802e-02 
       7.279297175260e-01       2.379018660482e-02 
       7.685829637218e-01       2.103923616524e-02 
       8.146102292538e-01       1.842989261702e-02 
       8.669680480455e-01       1.597457902305e-02 
       9.265193831693e-01       1.369808330667e-02 
       9.938458886090e-01       1.162902917216e-02 
       1.069144954181e+00       9.790798760947e-03 
       1.152332760345e+00       8.192360125639e-03 
       1.243295708729e+00       6.825852545604e-03 
       1.342095772805e+00       5.669886848180e-03 
       1.449029203296e+00       4.698286607424e-03 
       1.564586374602e+00       3.884668851474e-03 
       1.689391516011e+00       3.204908342584e-03 
       1.824160856865e+00       2.638071740721e-03 
       1.969683202239e+00       2.166221493205e-03 
       2.126814942975e+00       1.774150602740e-03 
       2.296481943529e+00       1.448938095057e-03 
       2.479684162707e+00       1.179724128020e-03 
       2.677501369259e+00       9.572916867659e-04 
       2.891099475621e+00       7.739335302554e-04 
       3.121737405595e+00       6.231207418569e-04 
       3.370774513870e+00       4.994129241416e-04 
       3.639678597884e+00       3.982179911517e-04 
       3.930034548851e+00       3.157095288288e-04 
       4.243553692939e+00       2.486786965787e-04 
       4.582083877640e+00       1.944478086203e-04 
       4.947620362778e+00       1.507829760862e-04 
       5.342317580354e+00       1.158131818064e-04 
       5.768501832533e+00       8.798754117216e-05 
       6.228685002611e+00       6.601077364806e-05 
       6.725579359783e+00       4.880492696450e-05 
       7.262113544958e+00       3.547427534399e-05 
       7.841449831849e+00       2.526889368836e-05 
       8.467002765069e+00       1.757398226547e-05 
       9.142459285082e+00       1.187411788280e-05 
       9.871800458624e+00       7.741083159120e-06 
       1.065932494268e+01       4.824854073948e-06 
       1.150967432028e+01       2.836320429879e-06 
       1.242786045752e+01       1.539055179422e-06 
       1.341929504291e+01       7.426666232105e-07 
       1.448982148328e+01       2.956086487203e-07 
       1.564574934421e+01       7.970600884862e-08 
       1.689389153788e+01       5.383728436073e-09 
       1.824160447766e+01       7.630020417421e-09 
       1.969683143598e+01       4.173462172881e-08 
       2.126814936113e+01       7.967101536693e-08 
       2.296481942883e+01       1.064867271375e-07 
       2.479684162659e+01       1.166141571186e-07 
       2.677501369256e+01       1.110702771528e-07 
       2.891099475621e+01       9.427556923092e-08 
       3.121737405595e+01       7.190627249273e-08 
       3.370774513870e+01       4.912143872691e-08 
       3.639678597884e+01       2.964859259299e-08 
       3.930034548851e+01       1.533466245492e-08 
       4.243553692939e+01       6.376712268424e-09 
       4.582083877640e+01       1.819555289306e-09 
       4.947620362778e+01       1.859919512689e-10 
       5.342317580354e+01       4.573052499501e-11 
