# Matter power spectrum P(k) at redshift z=99
# for k=1.04206e-05 to 53.4232 h/Mpc,
# number of wavenumbers equal to 243
#    1:k (h/Mpc)              2:P (Mpc/h)^3        
       1.042057218184e-05       7.036260929435e-03 
       1.125187501919e-05       7.577807674711e-03 
       1.214949517534e-05       8.161033620394e-03 
       1.311872312515e-05       8.789148142179e-03 
       1.416527139199e-05       9.465605314478e-03 
       1.529530821670e-05       1.019412588026e-02 
       1.651549391254e-05       1.097871819664e-02 
       1.783302012034e-05       1.182369464612e-02 
       1.925565219523e-05       1.273370416838e-02 
       2.079177497483e-05       1.371375238053e-02 
       2.245044219853e-05       1.476922835656e-02 
       2.424142986925e-05       1.590593818756e-02 
       2.617529387212e-05       1.713013403732e-02 
       2.826343218975e-05       1.844854685107e-02 
       3.051815208062e-05       1.986842969047e-02 
       3.295274261680e-05       2.139759139795e-02 
       3.558155300819e-05       2.304444014604e-02 
       3.842007717529e-05       2.481803397820e-02 
       4.148504506860e-05       2.672812600760e-02 
       4.479452127312e-05       2.878522064385e-02 
       4.836801147907e-05       3.100063001250e-02 
       5.222657744628e-05       3.338653470858e-02 
       5.639296113988e-05       3.595605557668e-02 
       6.089171876895e-05       3.872331949891e-02 
       6.574936551816e-05       4.170354103643e-02 
       7.099453182532e-05       4.491310311059e-02 
       7.665813212606e-05       4.836964963027e-02 
       8.277354706016e-05       5.209217843680e-02 
       8.937682021332e-05       5.610114901110e-02 
       9.650687055417e-05       6.041858990877e-02 
       1.042057218184e-04       6.506822426556e-02 
       1.125187501919e-04       7.007559021805e-02 
       1.214949517534e-04       7.546819264314e-02 
       1.311872312515e-04       8.127563721488e-02 
       1.416527139199e-04       8.752980291655e-02 
       1.529530821670e-04       9.426500750830e-02 
       1.651549391254e-04       1.015181935264e-01 
       1.783302012034e-04       1.093291280196e-01 
       1.925565219523e-04       1.177406113774e-01 
       2.079177497483e-04       1.267987049441e-01 
       2.245044219853e-04       1.365529774714e-01 
       2.424142986925e-04       1.470567586988e-01 
       2.617529387212e-04       1.583674216520e-01 
       2.826343218975e-04       1.705466741317e-01 
       3.051815208062e-04       1.836608704953e-01 
       3.295274261680e-04       1.977813491801e-01 
       3.558155300819e-04       2.129847782557e-01 
       3.842007717529e-04       2.293535305434e-01 
       4.148504506860e-04       2.469760655684e-01 
       4.479452127312e-04       2.659473415031e-01 
       4.836801147907e-04       2.863692323908e-01 
       5.222657744628e-04       3.083509591940e-01 
       5.639296113988e-04       3.320095401223e-01 
       6.089171876895e-04       3.574702177482e-01 
       6.574936551816e-04       3.848669203751e-01 
       7.099453182532e-04       4.143426641719e-01 
       7.665813212606e-04       4.460499662642e-01 
       8.277354706016e-04       4.801511870546e-01 
       8.937682021332e-04       5.168188240272e-01 
       9.650687055417e-04       5.562356987912e-01 
       1.042057218184e-03       5.985950254500e-01 
       1.125187501919e-03       6.441003044484e-01 
       1.214949517534e-03       6.929649990765e-01 
       1.311872312515e-03       7.454119173508e-01 
       1.416527139199e-03       8.016805663166e-01 
       1.529530821670e-03       8.620070327582e-01 
       1.651549391254e-03       9.266333534571e-01 
       1.783302012034e-03       9.958058761163e-01 
       1.925565219523e-03       1.069769906525e+00 
       2.079177497483e-03       1.148765179425e+00 
       2.245044219853e-03       1.233020202425e+00 
       2.424142986925e-03       1.322745166484e+00 
       2.617529387212e-03       1.418123334318e+00 
       2.826343218975e-03       1.519300754181e+00 
       3.051815208062e-03       1.626374120654e+00 
       3.295274261680e-03       1.739376799171e+00 
       3.558155300819e-03       1.858263553955e+00 
       3.842007717529e-03       1.982892997502e+00 
       4.148504506860e-03       2.113010517625e+00 
       4.479452127312e-03       2.248230592433e+00 
       4.836801147907e-03       2.388020500000e+00 
       5.222657744628e-03       2.531687171502e+00 
       5.639296113988e-03       2.678368375783e+00 
       6.089171876895e-03       2.827032408206e+00 
       6.574936551816e-03       2.976481703774e+00 
       7.099453182532e-03       3.125365318863e+00 
       7.665813212606e-03       3.272196174244e+00 
       8.277354706016e-03       3.415370826982e+00 
       8.937682021332e-03       3.553180998459e+00 
       9.650687055417e-03       3.683816998730e+00 
       1.042057218184e-02       3.805351170857e+00 
       1.125187501919e-02       3.915703855725e+00 
       1.214949517534e-02       4.012614720502e+00 
       1.311872312515e-02       4.093620157430e+00 
       1.416527139199e-02       4.156089566383e+00 
       1.529530821666e-02       4.197321297950e+00 
       1.651549391176e-02       4.214691678182e+00 
       1.783302010906e-02       4.205837661474e+00 
       1.925565206518e-02       4.168825775323e+00 
       2.079177376287e-02       4.102323227992e+00 
       2.245043293693e-02       4.005780027012e+00 
       2.424137103356e-02       3.879731245200e+00 
       2.617497906706e-02       3.726100706070e+00 
       2.826199580119e-02       3.548481000783e+00 
       3.051249938375e-02       3.352157260887e+00 
       3.293336996262e-02       3.144354464064e+00 
       3.552331487266e-02       2.933971311619e+00 
       3.826582157228e-02       2.731053096243e+00 
       4.112404724473e-02       2.545237175210e+00 
       4.404493044138e-02       2.383526997675e+00 
       4.697466957067e-02       2.248570318432e+00 
       4.987520971806e-02       2.138746291877e+00 
       5.272987739079e-02       2.049721712489e+00 
       5.553868476799e-02       1.976113268906e+00 
       5.831086443783e-02       1.912768294645e+00 
       6.105929318352e-02       1.855172612980e+00 
       6.379744399755e-02       1.799543213698e+00 
       6.653804689347e-02       1.742904750757e+00 
       6.929265033370e-02       1.683095471444e+00 
       7.207159151451e-02       1.618769793432e+00 
       7.488412589325e-02       1.549403063220e+00 
       7.773860159413e-02       1.475269526909e+00 
       8.064263092727e-02       1.397360303562e+00 
       8.360324183574e-02       1.317278518788e+00 
       8.662700531640e-02       1.237048024182e+00 
       8.972014012085e-02       1.158905059473e+00 
       9.288859777810e-02       1.085056945845e+00 
       9.613813123925e-02       1.017439860266e+00 
       9.947435014200e-02       9.575157740342e-01 
       1.029027652301e-01       9.061077260047e-01 
       1.064288240027e-01       8.633031659744e-01 
       1.100579392682e-01       8.284153670069e-01 
       1.137955119551e-01       8.000010699386e-01 
       1.176469492760e-01       7.759704125531e-01 
       1.216176791504e-01       7.537806777743e-01 
       1.257131616481e-01       7.307745497314e-01 
       1.299388981110e-01       7.046087354816e-01 
       1.343004385401e-01       6.737633200283e-01 
       1.388033877828e-01       6.379235413921e-01 
       1.434534110299e-01       5.981266893063e-01 
       1.482562391095e-01       5.565584825299e-01 
       1.532176740608e-01       5.160286786707e-01 
       1.583435954687e-01       4.792813303039e-01 
       1.636399680441e-01       4.482881231536e-01 
       1.691128509406e-01       4.237668512392e-01 
       1.747684093051e-01       4.049967293398e-01 
       1.806129285724e-01       3.899872995783e-01 
       1.866528320180e-01       3.761636202882e-01 
       1.928947021034e-01       3.607169354726e-01 
       1.993453061587e-01       3.419190332124e-01 
       2.060116269760e-01       3.199350813562e-01 
       2.129008989175e-01       2.966482406996e-01 
       2.200206501922e-01       2.745749831795e-01 
       2.273787520223e-01       2.556971351436e-01 
       2.349834755150e-01       2.408118001150e-01 
       2.428435571828e-01       2.292064759637e-01 
       2.509682742266e-01       2.189138946607e-01 
       2.593675309230e-01       2.078830681956e-01 
       2.680519577530e-01       1.951956682975e-01 
       2.770330252880e-01       1.814318446486e-01 
       2.863231753450e-01       1.682467586942e-01 
       2.959359725497e-01       1.570847605609e-01 
       3.058862802544e-01       1.480298482047e-01 
       3.161904657924e-01       1.400520986756e-01 
       3.268666413804e-01       1.318841516570e-01 
       3.379349486994e-01       1.230783761655e-01 
       3.494178974139e-01       1.143255286446e-01 
       3.613407708034e-01       1.064988605210e-01 
       3.737321155121e-01       9.981065168832e-02 
       3.866243374979e-01       9.360186806365e-02 
       4.000544330338e-01       8.732738374705e-02 
       4.140648927098e-01       8.108276506884e-02 
       4.287048286841e-01       7.533052305530e-02 
       4.440313921574e-01       7.015090206084e-02 
       4.601115708827e-01       6.524347138512e-02 
       4.770244877639e-01       6.040986696155e-02 
       4.948643642554e-01       5.582862328594e-02 
       5.137443700216e-01       5.161601069401e-02 
       5.338016569706e-01       4.758281650051e-02 
       5.552039733995e-01       4.369939118572e-02 
       5.781583676391e-01       4.005142456387e-02 
       6.029225951850e-01       3.657510305287e-02 
       6.298198626618e-01       3.324325654519e-02 
       6.592572812968e-01       3.007925548715e-02 
       6.917474167662e-01       2.704720156445e-02 
       7.279297175260e-01       2.415684605298e-02 
       7.685829637218e-01       2.139659648101e-02 
       8.146102292538e-01       1.877719189151e-02 
       8.669680480455e-01       1.631105489331e-02 
       9.265193831693e-01       1.402308088487e-02 
       9.938458886090e-01       1.194185957516e-02 
       1.069144954181e+00       1.009108878290e-02 
       1.152332760345e+00       8.479866240190e-03 
       1.243295708729e+00       7.100603148150e-03 
       1.342095772805e+00       5.931933353369e-03 
       1.449029203296e+00       4.947866518210e-03 
       1.564586374602e+00       4.121989980237e-03 
       1.689391516011e+00       3.430213101022e-03 
       1.824160856865e+00       2.851652510233e-03 
       1.969683202239e+00       2.368349221162e-03 
       2.126814942975e+00       1.965113065768e-03 
       2.296481943529e+00       1.629038534852e-03 
       2.479684162707e+00       1.349261264834e-03 
       2.677501369259e+00       1.116566109874e-03 
       2.891099475621e+00       9.232481999726e-04 
       3.121737405595e+00       7.627812039869e-04 
       3.370774513870e+00       6.297114947284e-04 
       3.639678597884e+00       5.194627900516e-04 
       3.930034548851e+00       4.281989898926e-04 
       4.243553692939e+00       3.527133619488e-04 
       4.582083877640e+00       2.903362033572e-04 
       4.947620362778e+00       2.388243629302e-04 
       5.342317580354e+00       1.963201891150e-04 
       5.768501832533e+00       1.612723068573e-04 
       6.228685002611e+00       1.323958352172e-04 
       6.725579359783e+00       1.086201070462e-04 
       7.262113544958e+00       8.905800388430e-05 
       7.841449831849e+00       7.297241780244e-05 
       8.467002765069e+00       5.975449516351e-05 
       9.142459285082e+00       4.889988034513e-05 
       9.871800458624e+00       3.999081030184e-05 
       1.065932494268e+01       3.268418588741e-05 
       1.150967432028e+01       2.669427519139e-05 
       1.242786045752e+01       2.178691533624e-05 
       1.341929504291e+01       1.776870498905e-05 
       1.448982148328e+01       1.448038784476e-05 
       1.564574934421e+01       1.179115962711e-05 
       1.689389153788e+01       9.592737713498e-06 
       1.824160447766e+01       7.796757019356e-06 
       1.969683143598e+01       6.330316707443e-06 
       2.126814936113e+01       5.133668137840e-06 
       2.296481942883e+01       4.157842966213e-06 
       2.479684162659e+01       3.362470886769e-06 
       2.677501369256e+01       2.714685654995e-06 
       2.891099475621e+01       2.187483126215e-06 
       3.121737405595e+01       1.758781134506e-06 
       3.370774513870e+01       1.410451789914e-06 
       3.639678597884e+01       1.127732116926e-06 
       3.930034548851e+01       8.985248466804e-07 
       4.243553692939e+01       7.129563260677e-07 
       4.582083877640e+01       5.629618559666e-07 
       4.947620362778e+01       4.419698560900e-07 
       5.342317580354e+01       3.446114386032e-07 
