# Matter power spectrum P(k) at redshift z=99
# for k=1.04206e-05 to 105.767 h/Mpc,
# number of wavenumbers equal to 192
#    1:k (h/Mpc)              2:P (Mpc/h)^3        
       1.042057218184e-05       7.036260929417e-03 
       1.169207429241e-05       7.864016108972e-03 
       1.311872312515e-05       8.789148142156e-03 
       1.471944944330e-05       9.823114227121e-03 
       1.651549391254e-05       1.097871819661e-02 
       1.853068895179e-05       1.227026615646e-02 
       2.079177497483e-05       1.371375238050e-02 
       2.332875521946e-05       1.532704927064e-02 
       2.617529387212e-05       1.713013403728e-02 
       2.936916277130e-05       1.914533011294e-02 
       3.295274261680e-05       2.139759139789e-02 
       3.697358533591e-05       2.391480135903e-02 
       4.148504506860e-05       2.672812600753e-02 
       4.654698614451e-05       2.987239549781e-02 
       5.222657744628e-05       3.338653470849e-02 
       5.859918369976e-05       3.731404483966e-02 
       6.574936551816e-05       4.170354103632e-02 
       7.377200147002e-05       4.660934851923e-02 
       8.277354706016e-05       5.209217843666e-02 
       9.287344732953e-05       5.821986951862e-02 
       1.042057218184e-04       6.506822426539e-02 
       1.169207429241e-04       7.272193811956e-02 
       1.311872312515e-04       8.127563721467e-02 
       1.471944944330e-04       9.083503009162e-02 
       1.651549391254e-04       1.015181935261e-01 
       1.853068895179e-04       1.134570015371e-01 
       2.079177497483e-04       1.267987049438e-01 
       2.332875521946e-04       1.417076917968e-01 
       2.617529387212e-04       1.583674216516e-01 
       2.936916277130e-04       1.769825661222e-01 
       3.295274261680e-04       1.977813491796e-01 
       3.697358533591e-04       2.210181080940e-01 
       4.148504506860e-04       2.469760655678e-01 
       4.654698614451e-04       2.759703106423e-01 
       5.222657744628e-04       3.083509591933e-01 
       5.859918369976e-04       3.445064540359e-01 
       6.574936551816e-04       3.848669203743e-01 
       7.377200147002e-04       4.299074567462e-01 
       8.277354706016e-04       4.801511870538e-01 
       9.287344732953e-04       5.361717747343e-01 
       1.042057218184e-03       5.985950254491e-01 
       1.169207429241e-03       6.680990083947e-01 
       1.311872312515e-03       7.454119173503e-01 
       1.471944944330e-03       8.313216520507e-01 
       1.651549391254e-03       9.266333534582e-01 
       1.853068895179e-03       1.032173776667e+00 
       2.079177497483e-03       1.148765179435e+00 
       2.332875521946e-03       1.277186728558e+00 
       2.617529387212e-03       1.418123334330e+00 
       2.936916277130e-03       1.572096675117e+00 
       3.295274261680e-03       1.739376799161e+00 
       3.697358533591e-03       1.919873493208e+00 
       4.148504506860e-03       2.113010517617e+00 
       4.654698614451e-03       2.317593857808e+00 
       5.222657744628e-03       2.531687171816e+00 
       5.859918369976e-03       2.752523269021e+00 
       6.574936551816e-03       2.976481703969e+00 
       7.377200147002e-03       3.199134863855e+00 
       8.277354706016e-03       3.415370827261e+00 
       9.287344732953e-03       3.619513206421e+00 
       1.042057218184e-02       3.805351171393e+00 
       1.169207429241e-02       3.965988258025e+00 
       1.311872312515e-02       4.093620158188e+00 
       1.471944944329e-02       4.179528771817e+00 
       1.651549391202e-02       4.214690557144e+00 
       1.853068892068e-02       4.190950633683e+00 
       2.079177387373e-02       4.102324956366e+00 
       2.332873074132e-02       3.946354066576e+00 
       2.617493570260e-02       3.726112591691e+00 
       2.936555805635e-02       3.452313259897e+00 
       3.292682347815e-02       3.144899113579e+00 
       3.683709330358e-02       2.833928664975e+00 
       4.095543211618e-02       2.555442112495e+00 
       4.502448509192e-02       2.335489985574e+00 
       4.884708991234e-02       2.175214410759e+00 
       5.239007941194e-02       2.059481694709e+00 
       5.570651898045e-02       1.972053384461e+00 
       5.886102379382e-02       1.900944352255e+00 
       6.190687314325e-02       1.837905688606e+00 
       6.488442645362e-02       1.777317687899e+00 
       6.782403073702e-02       1.715425178581e+00 
       7.074891559932e-02       1.649917661033e+00 
       7.367733710877e-02       1.579669110283e+00 
       7.662405936252e-02       1.504591026775e+00 
       7.960136626090e-02       1.425474672960e+00 
       8.261975780275e-02       1.343821902007e+00 
       8.568843639560e-02       1.261645705823e+00 
       8.881565226857e-02       1.181218484531e+00 
       9.200895293480e-02       1.104830392048e+00 
       9.527536616595e-02       1.034526336681e+00 
       9.862153605116e-02       9.718966092663e-01 
       1.020538253516e-01       9.179000782980e-01 
       1.055783932188e-01       8.727582431731e-01 
       1.092012546125e-01       8.359165691959e-01 
       1.129283259241e-01       8.060466131109e-01 
       1.167654600782e-01       7.811499620992e-01 
       1.207184735361e-01       7.587273768454e-01 
       1.247931670502e-01       7.360805457964e-01 
       1.289953416147e-01       7.107455849916e-01 
       1.333308107853e-01       6.809733729709e-01 
       1.378054103573e-01       6.461609303421e-01 
       1.424250062616e-01       6.070572305992e-01 
       1.471955014621e-01       5.656348816866e-01 
       1.521228425855e-01       5.246229652491e-01 
       1.572130269831e-01       4.868446741230e-01 
       1.624721109113e-01       4.544877473835e-01 
       1.679062195059e-01       4.285676354620e-01 
       1.735215592257e-01       4.086779764564e-01 
       1.793244334403e-01       3.930675749911e-01 
       1.853212618387e-01       3.792176649419e-01 
       1.915186043438e-01       3.643250325285e-01 
       1.979231902264e-01       3.463141426703e-01 
       2.045419531355e-01       3.249106627445e-01 
       2.113820727907e-01       3.016978051259e-01 
       2.184510241392e-01       2.791610060780e-01 
       2.257566348590e-01       2.594711227772e-01 
       2.333071522061e-01       2.437232383348e-01 
       2.411113203738e-01       2.315406365781e-01 
       2.491784697558e-01       2.211538864634e-01 
       2.575186198216e-01       2.104097366293e-01 
       2.661425977175e-01       1.980815566135e-01 
       2.750621752533e-01       1.844292839765e-01 
       2.842902276420e-01       1.709556352071e-01 
       2.938409182814e-01       1.592865057543e-01 
       3.037299150763e-01       1.498307260602e-01 
       3.139746453704e-01       1.417223004755e-01 
       3.245945986384e-01       1.336565426750e-01 
       3.356116888317e-01       1.249289176345e-01 
       3.470506919522e-01       1.160520509468e-01 
       3.589397793903e-01       1.079526309119e-01 
       3.713111743434e-01       1.010339051704e-01 
       3.842019680016e-01       9.474682593204e-02 
       3.976551452949e-01       8.843896505449e-02 
       4.117208885985e-01       8.208535703134e-02 
       4.264582545434e-01       7.615717879016e-02 
       4.419373581600e-01       7.081940162520e-02 
       4.582422565474e-01       6.579905254769e-02 
       4.754748117013e-01       6.083658970864e-02 
       4.937599462750e-01       5.609341529838e-02 
       5.132529154734e-01       5.171981930619e-02 
       5.341495508456e-01       4.751611261884e-02 
       5.567009681437e-01       4.344588157113e-02 
       5.812351068128e-01       3.959691237253e-02 
       6.081889018991e-01       3.588633300127e-02 
       6.381571986869e-01       3.230067360358e-02 
       6.719680157595e-01       2.883964661268e-02 
       7.107980430614e-01       2.546868359776e-02 
       7.563432000599e-01       2.217953204241e-02 
       8.110382507288e-01       1.896442647054e-02 
       8.782180910137e-01       1.584116672978e-02 
       9.618344028334e-01       1.287380346670e-02 
       1.065122976209e+00       1.017977080955e-02 
       1.188861021489e+00       7.885003740893e-03 
       1.331974042180e+00       6.038991386967e-03 
       1.494067066756e+00       4.601086249951e-03 
       1.676302948959e+00       3.495077972921e-03 
       1.880835468917e+00       2.648709745839e-03 
       2.110331571097e+00       2.002968689637e-03 
       2.367830942715e+00       1.511555825449e-03 
       2.656750013695e+00       1.138495008000e-03 
       2.980922543821e+00       8.559115307968e-04 
       3.344650105012e+00       6.423339935126e-04 
       3.752759141007e+00       4.812414167367e-04 
       4.210665010760e+00       3.599655497771e-04 
       4.724443846956e+00       2.688449544556e-04 
       5.300913182598e+00       2.004948170718e-04 
       5.947722415527e+00       1.493113946748e-04 
       6.673454311287e+00       1.110445424037e-04 
       7.487738891205e+00       8.247923299283e-05 
       8.401381216927e+00       6.118685378970e-05 
       9.426504767018e+00       4.533755697342e-05 
       1.057671230816e+01       3.355548406632e-05 
       1.186726639560e+01       2.480825463887e-05 
       1.331529189798e+01       1.832192511345e-05 
       1.494000323395e+01       1.351791456890e-05 
       1.676295933582e+01       9.963789442404e-06 
       1.880834972351e+01       7.337104246689e-06 
       2.110331548474e+01       5.397986651050e-06 
       2.367830942083e+01       3.967836982079e-06 
       2.656750013685e+01       2.914090408591e-06 
       2.980922543821e+01       2.138348705553e-06 
       3.344650105012e+01       1.567854920183e-06 
       3.752759141006e+01       1.148612757598e-06 
       4.210665010760e+01       8.408102587183e-07 
       4.724443846956e+01       6.150078582896e-07 
       5.300913182598e+01       4.494797615666e-07 
       5.947722415527e+01       3.282420078771e-07 
       6.673454311287e+01       2.395081813267e-07 
       7.487738891205e+01       1.746142869592e-07 
       8.401381216927e+01       1.271917225322e-07 
       9.426504767018e+01       9.256214289539e-08 
       1.057671230816e+02       6.729412131615e-08 
