# Matter power spectrum P(k) at redshift z=99
# for k=1.04206e-05 to 105.767 h/Mpc,
# number of wavenumbers equal to 192
#    1:k (h/Mpc)              2:P (Mpc/h)^3        
       1.042057218184e-05       7.036260929424e-03 
       1.169207429241e-05       7.864016108980e-03 
       1.311872312515e-05       8.789148142164e-03 
       1.471944944330e-05       9.823114227130e-03 
       1.651549391254e-05       1.097871819662e-02 
       1.853068895179e-05       1.227026615647e-02 
       2.079177497483e-05       1.371375238051e-02 
       2.332875521946e-05       1.532704927065e-02 
       2.617529387212e-05       1.713013403729e-02 
       2.936916277130e-05       1.914533011296e-02 
       3.295274261680e-05       2.139759139791e-02 
       3.697358533591e-05       2.391480135905e-02 
       4.148504506860e-05       2.672812600755e-02 
       4.654698614451e-05       2.987239549784e-02 
       5.222657744628e-05       3.338653470852e-02 
       5.859918369976e-05       3.731404483970e-02 
       6.574936551816e-05       4.170354103636e-02 
       7.377200147002e-05       4.660934851927e-02 
       8.277354706016e-05       5.209217843671e-02 
       9.287344732953e-05       5.821986951867e-02 
       1.042057218184e-04       6.506822426545e-02 
       1.169207429241e-04       7.272193811963e-02 
       1.311872312515e-04       8.127563721474e-02 
       1.471944944330e-04       9.083503009171e-02 
       1.651549391254e-04       1.015181935262e-01 
       1.853068895179e-04       1.134570015372e-01 
       2.079177497483e-04       1.267987049439e-01 
       2.332875521946e-04       1.417076917970e-01 
       2.617529387212e-04       1.583674216518e-01 
       2.936916277130e-04       1.769825661224e-01 
       3.295274261680e-04       1.977813491798e-01 
       3.697358533591e-04       2.210181080942e-01 
       4.148504506860e-04       2.469760655680e-01 
       4.654698614451e-04       2.759703106426e-01 
       5.222657744628e-04       3.083509591936e-01 
       5.859918369976e-04       3.445064540361e-01 
       6.574936551816e-04       3.848669203746e-01 
       7.377200147002e-04       4.299074567466e-01 
       8.277354706016e-04       4.801511870541e-01 
       9.287344732953e-04       5.361717747347e-01 
       1.042057218184e-03       5.985950254496e-01 
       1.169207429241e-03       6.680990083954e-01 
       1.311872312515e-03       7.454119173508e-01 
       1.471944944330e-03       8.313216520510e-01 
       1.651549391254e-03       9.266333534584e-01 
       1.853068895179e-03       1.032173776674e+00 
       2.079177497483e-03       1.148765179429e+00 
       2.332875521946e-03       1.277186728557e+00 
       2.617529387212e-03       1.418123334328e+00 
       2.936916277130e-03       1.572096675113e+00 
       3.295274261680e-03       1.739376799191e+00 
       3.697358533591e-03       1.919873493198e+00 
       4.148504506860e-03       2.113010517662e+00 
       4.654698614451e-03       2.317593840149e+00 
       5.222657744628e-03       2.531687171562e+00 
       5.859918369976e-03       2.752523303305e+00 
       6.574936551816e-03       2.976481703869e+00 
       7.377200147002e-03       3.199134863701e+00 
       8.277354706016e-03       3.415370481119e+00 
       9.287344732953e-03       3.619513206045e+00 
       1.042057218184e-02       3.805351028259e+00 
       1.169207429241e-02       3.965988847410e+00 
       1.311872312515e-02       4.093620156914e+00 
       1.471944944329e-02       4.179528769923e+00 
       1.651549391202e-02       4.214691676271e+00 
       1.853068892068e-02       4.190950983869e+00 
       2.079177387373e-02       4.102324950563e+00 
       2.332873074132e-02       3.946354058418e+00 
       2.617493570260e-02       3.726104283644e+00 
       2.936555805635e-02       3.452316210073e+00 
       3.292682347815e-02       3.144896388665e+00 
       3.683709330358e-02       2.833924180491e+00 
       4.095543211618e-02       2.555442084704e+00 
       4.502448509192e-02       2.335497472983e+00 
       4.884708991234e-02       2.175214377469e+00 
       5.239007941194e-02       2.059481742696e+00 
       5.570651898045e-02       1.972058331098e+00 
       5.886102379382e-02       1.900944110620e+00 
       6.190687314325e-02       1.837905631104e+00 
       6.488442645362e-02       1.777317611776e+00 
       6.782403073702e-02       1.715425168862e+00 
       7.074891559932e-02       1.649917638873e+00 
       7.367733710877e-02       1.579669955719e+00 
       7.662405936252e-02       1.504591622277e+00 
       7.960136626090e-02       1.425474811602e+00 
       8.261975780275e-02       1.343821873747e+00 
       8.568843639560e-02       1.261644934588e+00 
       8.881565226857e-02       1.181218397381e+00 
       9.200895293480e-02       1.104829964919e+00 
       9.527536616595e-02       1.034526433630e+00 
       9.862153605116e-02       9.718997437910e-01 
       1.020538253516e-01       9.178995520829e-01 
       1.055783932188e-01       8.727583264887e-01 
       1.092012546125e-01       8.359164672269e-01 
       1.129283259241e-01       8.060458196415e-01 
       1.167654600782e-01       7.811489930958e-01 
       1.207184735361e-01       7.587271353991e-01 
       1.247931670502e-01       7.360804334424e-01 
       1.289953416147e-01       7.107453781889e-01 
       1.333308107853e-01       6.809731633434e-01 
       1.378054103573e-01       6.461605410213e-01 
       1.424250062616e-01       6.070571400440e-01 
       1.471955014621e-01       5.656352020880e-01 
       1.521228425855e-01       5.246242712394e-01 
       1.572130269831e-01       4.868446592040e-01 
       1.624721109113e-01       4.544876387471e-01 
       1.679062195059e-01       4.285677994154e-01 
       1.735215592257e-01       4.086783945885e-01 
       1.793244334403e-01       3.930677230083e-01 
       1.853212618387e-01       3.792172959493e-01 
       1.915186043438e-01       3.643253778363e-01 
       1.979231902264e-01       3.463140601065e-01 
       2.045419531355e-01       3.249105335586e-01 
       2.113820727907e-01       3.016976519609e-01 
       2.184510241392e-01       2.791607008576e-01 
       2.257566348590e-01       2.594708970112e-01 
       2.333071522061e-01       2.437232599096e-01 
       2.411113203738e-01       2.315406367619e-01 
       2.491784697558e-01       2.211537191243e-01 
       2.575186198216e-01       2.104093998620e-01 
       2.661425977175e-01       1.980813537938e-01 
       2.750621752533e-01       1.844290088398e-01 
       2.842902276420e-01       1.709555029993e-01 
       2.938409182814e-01       1.592861848750e-01 
       3.037299150763e-01       1.498305254660e-01 
       3.139746453704e-01       1.417221779331e-01 
       3.245945986384e-01       1.336564837041e-01 
       3.356116888317e-01       1.249287925922e-01 
       3.470506919522e-01       1.160518870199e-01 
       3.589397793903e-01       1.079524591291e-01 
       3.713111743434e-01       1.010336570087e-01 
       3.842019680016e-01       9.474650826732e-02 
       3.976551452949e-01       8.843884670740e-02 
       4.117208885985e-01       8.208525220570e-02 
       4.264582545434e-01       7.615700376022e-02 
       4.419373581600e-01       7.081922430022e-02 
       4.582422565474e-01       6.579894233261e-02 
       4.754748117013e-01       6.083654496314e-02 
       4.937599462750e-01       5.609327745867e-02 
       5.132529154734e-01       5.171971209970e-02 
       5.341495508456e-01       4.751600914860e-02 
       5.567009681437e-01       4.344578497175e-02 
       5.812351068128e-01       3.959680138945e-02 
       6.081889018991e-01       3.588621868718e-02 
       6.381571986869e-01       3.230055753276e-02 
       6.719680157595e-01       2.883953800579e-02 
       7.107980430614e-01       2.546857618965e-02 
       7.563432000599e-01       2.217943436951e-02 
       8.110382507288e-01       1.896432897697e-02 
       8.782180910137e-01       1.584106932945e-02 
       9.618344028334e-01       1.287370886998e-02 
       1.065122976209e+00       1.017968354681e-02 
       1.188861021489e+00       7.884921233515e-03 
       1.331974042180e+00       6.038913647718e-03 
       1.494067066756e+00       4.601012138428e-03 
       1.676302948959e+00       3.495005423065e-03 
       1.880835468917e+00       2.648643773430e-03 
       2.110331571097e+00       2.002905991600e-03 
       2.367830942715e+00       1.511496883889e-03 
       2.656750013695e+00       1.138439450868e-03 
       2.980922543821e+00       8.558590979789e-04 
       3.344650105012e+00       6.422851111070e-04 
       3.752759141007e+00       4.811955350761e-04 
       4.210665010760e+00       3.599208867176e-04 
       4.724443846956e+00       2.688045830007e-04 
       5.300913182598e+00       2.004569186141e-04 
       5.947722415527e+00       1.492758346340e-04 
       6.673454311287e+00       1.110110627870e-04 
       7.487738891205e+00       8.244781865529e-05 
       8.401381216927e+00       6.115740581302e-05 
       9.426504767018e+00       4.530992371534e-05 
       1.057671230816e+01       3.352956177310e-05 
       1.186726639560e+01       2.478393707390e-05 
       1.331529189798e+01       1.829922278443e-05 
       1.494000323395e+01       1.349656522755e-05 
       1.676295933582e+01       9.943715868893e-06 
       1.880834972351e+01       7.318433405490e-06 
       2.110331548474e+01       5.380430113652e-06 
       2.367830942083e+01       3.951395161031e-06 
       2.656750013685e+01       2.898807938958e-06 
       2.980922543821e+01       2.124094609472e-06 
       3.344650105012e+01       1.554545643974e-06 
       3.752759141006e+01       1.136225723065e-06 
       4.210665010760e+01       8.292831002513e-07 
       4.724443846956e+01       6.042892614491e-07 
       5.300913182598e+01       4.395376232097e-07 
       5.947722415527e+01       3.190327939934e-07 
       6.673454311287e+01       2.309910423398e-07 
       7.487738891205e+01       1.667556189779e-07 
       8.401381216927e+01       1.199548070075e-07 
       9.426504767018e+01       8.591940576431e-08 
       1.057671230816e+02       6.121606675282e-08 
