# Matter power spectrum P(k) at redshift z=99
# for k=1.04206e-05 to 105.767 h/Mpc,
# number of wavenumbers equal to 192
#    1:k (h/Mpc)              2:P (Mpc/h)^3        
       1.042057218184e-05       7.036260929412e-03 
       1.169207429241e-05       7.864016108967e-03 
       1.311872312515e-05       8.789148142149e-03 
       1.471944944330e-05       9.823114227113e-03 
       1.651549391254e-05       1.097871819660e-02 
       1.853068895179e-05       1.227026615645e-02 
       2.079177497483e-05       1.371375238049e-02 
       2.332875521946e-05       1.532704927063e-02 
       2.617529387212e-05       1.713013403726e-02 
       2.936916277130e-05       1.914533011293e-02 
       3.295274261680e-05       2.139759139788e-02 
       3.697358533591e-05       2.391480135901e-02 
       4.148504506860e-05       2.672812600751e-02 
       4.654698614451e-05       2.987239549779e-02 
       5.222657744628e-05       3.338653470847e-02 
       5.859918369976e-05       3.731404483963e-02 
       6.574936551816e-05       4.170354103629e-02 
       7.377200147002e-05       4.660934851919e-02 
       8.277354706016e-05       5.209217843662e-02 
       9.287344732953e-05       5.821986951857e-02 
       1.042057218184e-04       6.506822426535e-02 
       1.169207429241e-04       7.272193811951e-02 
       1.311872312515e-04       8.127563721461e-02 
       1.471944944330e-04       9.083503009156e-02 
       1.651549391254e-04       1.015181935261e-01 
       1.853068895179e-04       1.134570015370e-01 
       2.079177497483e-04       1.267987049437e-01 
       2.332875521946e-04       1.417076917967e-01 
       2.617529387212e-04       1.583674216515e-01 
       2.936916277130e-04       1.769825661221e-01 
       3.295274261680e-04       1.977813491794e-01 
       3.697358533591e-04       2.210181080939e-01 
       4.148504506860e-04       2.469760655676e-01 
       4.654698614451e-04       2.759703106421e-01 
       5.222657744628e-04       3.083509591931e-01 
       5.859918369976e-04       3.445064540356e-01 
       6.574936551816e-04       3.848669203741e-01 
       7.377200147002e-04       4.299074567460e-01 
       8.277354706016e-04       4.801511870535e-01 
       9.287344732953e-04       5.361717747340e-01 
       1.042057218184e-03       5.985950254489e-01 
       1.169207429241e-03       6.680990083944e-01 
       1.311872312515e-03       7.454119173500e-01 
       1.471944944330e-03       8.313216520504e-01 
       1.651549391254e-03       9.266333534580e-01 
       1.853068895179e-03       1.032173776674e+00 
       2.079177497483e-03       1.148765179436e+00 
       2.332875521946e-03       1.277186728559e+00 
       2.617529387212e-03       1.418123334331e+00 
       2.936916277130e-03       1.572096675121e+00 
       3.295274261680e-03       1.739376799201e+00 
       3.697358533591e-03       1.919873493215e+00 
       4.148504506860e-03       2.113010517691e+00 
       4.654698614451e-03       2.317593840205e+00 
       5.222657744628e-03       2.531687179830e+00 
       5.859918369976e-03       2.752523303420e+00 
       6.574936551816e-03       2.976481704050e+00 
       7.377200147002e-03       3.199134863954e+00 
       8.277354706016e-03       3.415370827518e+00 
       9.287344732953e-03       3.619513206746e+00 
       1.042057218184e-02       3.805350870572e+00 
       1.169207429241e-02       3.965988848991e+00 
       1.311872312515e-02       4.093619330543e+00 
       1.471944944329e-02       4.179528773466e+00 
       1.651549391202e-02       4.214691681488e+00 
       1.853068892068e-02       4.190950991460e+00 
       2.079177387373e-02       4.102324961496e+00 
       2.332873074132e-02       3.946354073821e+00 
       2.617493570260e-02       3.726104305041e+00 
       2.936555805635e-02       3.452317761617e+00 
       3.292682347815e-02       3.144904534293e+00 
       3.683709330358e-02       2.833929913603e+00 
       4.095543211618e-02       2.555442139189e+00 
       4.502448509192e-02       2.335490019178e+00 
       4.884708991234e-02       2.175214466386e+00 
       5.239007941194e-02       2.059481811916e+00 
       5.570651898045e-02       1.972053542598e+00 
       5.886102379382e-02       1.900944211859e+00 
       6.190687314325e-02       1.837905836319e+00 
       6.488442645362e-02       1.777318440631e+00 
       6.782403073702e-02       1.715426062837e+00 
       7.074891559932e-02       1.649918478528e+00 
       7.367733710877e-02       1.579671234865e+00 
       7.662405936252e-02       1.504591942042e+00 
       7.960136626090e-02       1.425474363476e+00 
       8.261975780275e-02       1.343823227231e+00 
       8.568843639560e-02       1.261645821151e+00 
       8.881565226857e-02       1.181218561750e+00 
       9.200895293480e-02       1.104830454800e+00 
       9.527536616595e-02       1.034526515610e+00 
       9.862153605116e-02       9.718998999199e-01 
       1.020538253516e-01       9.179001972209e-01 
       1.055783932188e-01       8.727581657963e-01 
       1.092012546125e-01       8.359165953375e-01 
       1.129283259241e-01       8.060466556501e-01 
       1.167654600782e-01       7.811498670735e-01 
       1.207184735361e-01       7.587261271947e-01 
       1.247931670502e-01       7.360804893055e-01 
       1.289953416147e-01       7.107457108989e-01 
       1.333308107853e-01       6.809732358683e-01 
       1.378054103573e-01       6.461610681166e-01 
       1.424250062616e-01       6.070571936731e-01 
       1.471955014621e-01       5.656353140088e-01 
       1.521228425855e-01       5.246259630974e-01 
       1.572130269831e-01       4.868447799567e-01 
       1.624721109113e-01       4.544878528723e-01 
       1.679062195059e-01       4.285677329452e-01 
       1.735215592257e-01       4.086786242868e-01 
       1.793244334403e-01       3.930681105974e-01 
       1.853212618387e-01       3.792172496412e-01 
       1.915186043438e-01       3.643252216351e-01 
       1.979231902264e-01       3.463141262023e-01 
       2.045419531355e-01       3.249121456653e-01 
       2.113820727907e-01       3.016978143504e-01 
       2.184510241392e-01       2.791609445789e-01 
       2.257566348590e-01       2.594711939478e-01 
       2.333071522061e-01       2.437236233795e-01 
       2.411113203738e-01       2.315409145876e-01 
       2.491784697558e-01       2.211537584344e-01 
       2.575186198216e-01       2.104094248326e-01 
       2.661425977175e-01       1.980817820240e-01 
       2.750621752533e-01       1.844294626616e-01 
       2.842902276420e-01       1.709555428231e-01 
       2.938409182814e-01       1.592861935913e-01 
       3.037299150763e-01       1.498306525771e-01 
       3.139746453704e-01       1.417223216784e-01 
       3.245945986384e-01       1.336571247351e-01 
       3.356116888317e-01       1.249293271146e-01 
       3.470506919522e-01       1.160520550971e-01 
       3.589397793903e-01       1.079526571679e-01 
       3.713111743434e-01       1.010339053738e-01 
       3.842019680016e-01       9.474690643476e-02 
       3.976551452949e-01       8.843902699692e-02 
       4.117208885985e-01       8.208540446085e-02 
       4.264582545434e-01       7.615716571680e-02 
       4.419373581600e-01       7.081936961027e-02 
       4.582422565474e-01       6.579909045976e-02 
       4.754748117013e-01       6.083662581775e-02 
       4.937599462750e-01       5.609336318813e-02 
       5.132529154734e-01       5.171980350147e-02 
       5.341495508456e-01       4.751613218573e-02 
       5.567009681437e-01       4.344587593817e-02 
       5.812351068128e-01       3.959691581909e-02 
       6.081889018991e-01       3.588633989651e-02 
       6.381571986869e-01       3.230070018486e-02 
       6.719680157595e-01       2.883965389630e-02 
       7.107980430614e-01       2.546870321257e-02 
       7.563432000599e-01       2.217956555074e-02 
       8.110382507288e-01       1.896445859114e-02 
       8.782180910137e-01       1.584119921850e-02 
       9.618344028334e-01       1.287384113602e-02 
       1.065122976209e+00       1.017980722123e-02 
       1.188861021489e+00       7.885041896968e-03 
       1.331974042180e+00       6.039027494922e-03 
       1.494067066756e+00       4.601120603867e-03 
       1.676302948959e+00       3.495109934100e-03 
       1.880835468917e+00       2.648741166457e-03 
       2.110331571097e+00       2.002995859486e-03 
       2.367830942715e+00       1.511579942202e-03 
       2.656750013695e+00       1.138515445388e-03 
       2.980922543821e+00       8.559307675064e-04 
       3.344650105012e+00       6.423514092838e-04 
       3.752759141007e+00       4.812569966510e-04 
       4.210665010760e+00       3.599797405835e-04 
       4.724443846956e+00       2.688567195538e-04 
       5.300913182598e+00       2.005051808696e-04 
       5.947722415527e+00       1.493203393370e-04 
       6.673454311287e+00       1.110522192449e-04 
       7.487738891205e+00       8.248565851195e-05 
       8.401381216927e+00       6.119228533170e-05 
       9.426504767018e+00       4.534209115602e-05 
       1.057671230816e+01       3.355918628278e-05 
       1.186726639560e+01       2.481124380899e-05 
       1.331529189798e+01       1.832429338460e-05 
       1.494000323395e+01       1.351979185035e-05 
       1.676295933582e+01       9.965131998863e-06 
       1.880834972351e+01       7.338044865737e-06 
       2.110331548474e+01       5.398607416164e-06 
       2.367830942083e+01       3.968138003696e-06 
       2.656750013685e+01       2.914144683115e-06 
       2.980922543821e+01       2.138204333834e-06 
       3.344650105012e+01       1.567515683810e-06 
       3.752759141006e+01       1.148159413120e-06 
       4.210665010760e+01       8.402425249872e-07 
       4.724443846956e+01       6.143397805565e-07 
       5.300913182598e+01       4.487468289135e-07 
       5.947722415527e+01       3.274557509154e-07 
       6.673454311287e+01       2.386865606024e-07 
       7.487738891205e+01       1.737719760370e-07 
       8.401381216927e+01       1.263386163015e-07 
       9.426504767018e+01       9.170588399378e-08 
       1.057671230816e+02       6.644435588093e-08 
