# Matter power spectrum P(k) at redshift z=99
# for k=1.04206e-05 to 105.767 h/Mpc,
# number of wavenumbers equal to 192
#    1:k (h/Mpc)              2:P (Mpc/h)^3        
       1.042057218184e-05       7.036260929413e-03 
       1.169207429241e-05       7.864016108968e-03 
       1.311872312515e-05       8.789148142150e-03 
       1.471944944330e-05       9.823114227115e-03 
       1.651549391254e-05       1.097871819660e-02 
       1.853068895179e-05       1.227026615646e-02 
       2.079177497483e-05       1.371375238049e-02 
       2.332875521946e-05       1.532704927063e-02 
       2.617529387212e-05       1.713013403727e-02 
       2.936916277130e-05       1.914533011293e-02 
       3.295274261680e-05       2.139759139788e-02 
       3.697358533591e-05       2.391480135901e-02 
       4.148504506860e-05       2.672812600751e-02 
       4.654698614451e-05       2.987239549779e-02 
       5.222657744628e-05       3.338653470847e-02 
       5.859918369976e-05       3.731404483964e-02 
       6.574936551816e-05       4.170354103629e-02 
       7.377200147002e-05       4.660934851920e-02 
       8.277354706016e-05       5.209217843663e-02 
       9.287344732953e-05       5.821986951858e-02 
       1.042057218184e-04       6.506822426536e-02 
       1.169207429241e-04       7.272193811952e-02 
       1.311872312515e-04       8.127563721462e-02 
       1.471944944330e-04       9.083503009157e-02 
       1.651549391254e-04       1.015181935261e-01 
       1.853068895179e-04       1.134570015370e-01 
       2.079177497483e-04       1.267987049437e-01 
       2.332875521946e-04       1.417076917968e-01 
       2.617529387212e-04       1.583674216515e-01 
       2.936916277130e-04       1.769825661221e-01 
       3.295274261680e-04       1.977813491795e-01 
       3.697358533591e-04       2.210181080939e-01 
       4.148504506860e-04       2.469760655677e-01 
       4.654698614451e-04       2.759703106422e-01 
       5.222657744628e-04       3.083509591931e-01 
       5.859918369976e-04       3.445064540357e-01 
       6.574936551816e-04       3.848669203741e-01 
       7.377200147002e-04       4.299074567460e-01 
       8.277354706016e-04       4.801511870535e-01 
       9.287344732953e-04       5.361717747340e-01 
       1.042057218184e-03       5.985950254488e-01 
       1.169207429241e-03       6.680990083947e-01 
       1.311872312515e-03       7.454119173502e-01 
       1.471944944330e-03       8.313216520507e-01 
       1.651549391254e-03       9.266333534580e-01 
       1.853068895179e-03       1.032173776667e+00 
       2.079177497483e-03       1.148765179430e+00 
       2.332875521946e-03       1.277186728462e+00 
       2.617529387212e-03       1.418123334331e+00 
       2.936916277130e-03       1.572096675120e+00 
       3.295274261680e-03       1.739376799164e+00 
       3.697358533591e-03       1.919873493213e+00 
       4.148504506860e-03       2.113010517688e+00 
       4.654698614451e-03       2.317593857922e+00 
       5.222657744628e-03       2.531687171629e+00 
       5.859918369976e-03       2.752523302917e+00 
       6.574936551816e-03       2.976481704038e+00 
       7.377200147002e-03       3.199134985784e+00 
       8.277354706016e-03       3.415370827437e+00 
       9.287344732953e-03       3.619513567292e+00 
       1.042057218184e-02       3.805351030207e+00 
       1.169207429241e-02       3.965988848111e+00 
       1.311872312515e-02       4.093619330462e+00 
       1.471944944329e-02       4.179528773356e+00 
       1.651549391202e-02       4.214691681341e+00 
       1.853068892068e-02       4.190950991267e+00 
       2.079177387373e-02       4.102321563543e+00 
       2.332873074132e-02       3.946354617930e+00 
       2.617493570260e-02       3.726113901653e+00 
       2.936555805635e-02       3.452313273182e+00 
       3.292682347815e-02       3.144899139796e+00 
       3.683709330358e-02       2.833929912887e+00 
       4.095543211618e-02       2.555441185967e+00 
       4.502448509192e-02       2.335489591108e+00 
       4.884708991234e-02       2.175214464943e+00 
       5.239007941194e-02       2.059481797985e+00 
       5.570651898045e-02       1.972054478435e+00 
       5.886102379382e-02       1.900943221111e+00 
       6.190687314325e-02       1.837905793516e+00 
       6.488442645362e-02       1.777317669387e+00 
       6.782403073702e-02       1.715425150476e+00 
       7.074891559932e-02       1.649917197533e+00 
       7.367733710877e-02       1.579669259225e+00 
       7.662405936252e-02       1.504591144229e+00 
       7.960136626090e-02       1.425474777354e+00 
       8.261975780275e-02       1.343821582345e+00 
       8.568843639560e-02       1.261645019807e+00 
       8.881565226857e-02       1.181218781062e+00 
       9.200895293480e-02       1.104831045655e+00 
       9.527536616595e-02       1.034526415605e+00 
       9.862153605116e-02       9.718999191904e-01 
       1.020538253516e-01       9.178992577680e-01 
       1.055783932188e-01       8.727583924014e-01 
       1.092012546125e-01       8.359155276387e-01 
       1.129283259241e-01       8.060467653190e-01 
       1.167654600782e-01       7.811491949284e-01 
       1.207184735361e-01       7.587256237837e-01 
       1.247931670502e-01       7.360803997296e-01 
       1.289953416147e-01       7.107454032514e-01 
       1.333308107853e-01       6.809728816491e-01 
       1.378054103573e-01       6.461602317078e-01 
       1.424250062616e-01       6.070566593555e-01 
       1.471955014621e-01       5.656345433764e-01 
       1.521228425855e-01       5.246241603409e-01 
       1.572130269831e-01       4.868447671418e-01 
       1.624721109113e-01       4.544878584589e-01 
       1.679062195059e-01       4.285677269380e-01 
       1.735215592257e-01       4.086780736846e-01 
       1.793244334403e-01       3.930675461678e-01 
       1.853212618387e-01       3.792179307472e-01 
       1.915186043438e-01       3.643261173839e-01 
       1.979231902264e-01       3.463143494002e-01 
       2.045419531355e-01       3.249132665921e-01 
       2.113820727907e-01       3.016987487044e-01 
       2.184510241392e-01       2.791606553979e-01 
       2.257566348590e-01       2.594710990471e-01 
       2.333071522061e-01       2.437235378241e-01 
       2.411113203738e-01       2.315408013385e-01 
       2.491784697558e-01       2.211536767493e-01 
       2.575186198216e-01       2.104120643058e-01 
       2.661425977175e-01       1.980833102596e-01 
       2.750621752533e-01       1.844294040698e-01 
       2.842902276420e-01       1.709555593053e-01 
       2.938409182814e-01       1.592860331305e-01 
       3.037299150763e-01       1.498307122986e-01 
       3.139746453704e-01       1.417221359965e-01 
       3.245945986384e-01       1.336568670225e-01 
       3.356116888317e-01       1.249289958834e-01 
       3.470506919522e-01       1.160518928891e-01 
       3.589397793903e-01       1.079525940270e-01 
       3.713111743434e-01       1.010339166783e-01 
       3.842019680016e-01       9.474676057106e-02 
       3.976551452949e-01       8.843892836691e-02 
       4.117208885985e-01       8.208528148467e-02 
       4.264582545434e-01       7.615705601217e-02 
       4.419373581600e-01       7.081930156213e-02 
       4.582422565474e-01       6.579902682195e-02 
       4.754748117013e-01       6.083657178023e-02 
       4.937599462750e-01       5.609338177408e-02 
       5.132529154734e-01       5.171980639666e-02 
       5.341495508456e-01       4.751610992156e-02 
       5.567009681437e-01       4.344587390416e-02 
       5.812351068128e-01       3.959690510368e-02 
       6.081889018991e-01       3.588631776448e-02 
       6.381571986869e-01       3.230067303962e-02 
       6.719680157595e-01       2.883965355090e-02 
       7.107980430614e-01       2.546868784557e-02 
       7.563432000599e-01       2.217954403414e-02 
       8.110382507288e-01       1.896444196898e-02 
       8.782180910137e-01       1.584118112941e-02 
       9.618344028334e-01       1.287381793351e-02 
       1.065122976209e+00       1.017978804168e-02 
       1.188861021489e+00       7.885020047948e-03 
       1.331974042180e+00       6.039004553116e-03 
       1.494067066756e+00       4.601096527643e-03 
       1.676302948959e+00       3.495083947990e-03 
       1.880835468917e+00       2.648714108167e-03 
       2.110331571097e+00       2.002969540927e-03 
       2.367830942715e+00       1.511551071073e-03 
       2.656750013695e+00       1.138482168063e-03 
       2.980922543821e+00       8.558931658889e-04 
       3.344650105012e+00       6.423138116345e-04 
       3.752759141007e+00       4.812146433930e-04 
       4.210665010760e+00       3.599358062256e-04 
       4.724443846956e+00       2.688059650777e-04 
       5.300913182598e+00       2.004497583779e-04 
       5.947722415527e+00       1.492600862084e-04 
       6.673454311287e+00       1.109887314004e-04 
       7.487738891205e+00       8.241722017604e-05 
       8.401381216927e+00       6.111814669479e-05 
       9.426504767018e+00       4.526203169636e-05 
       1.057671230816e+01       3.347274557920e-05 
       1.186726639560e+01       2.471806387464e-05 
       1.331529189798e+01       1.822385741073e-05 
       1.494000323395e+01       1.341172898221e-05 
       1.676295933582e+01       9.849252893058e-06 
       1.880834972351e+01       7.214175210602e-06 
       2.110331548474e+01       5.266693733280e-06 
       2.367830942083e+01       3.828373541411e-06 
       2.656750013685e+01       2.766875273255e-06 
       2.980922543821e+01       1.984152814389e-06 
       3.344650105012e+01       1.407626376485e-06 
       3.752759141006e+01       9.839210138446e-07 
       4.210665010760e+01       6.736190058931e-07 
       4.724443846956e+01       4.479321812095e-07 
       5.300913182598e+01       2.856985522283e-07 
       5.947722415527e+01       1.714749011976e-07 
       6.673454311287e+01       9.385538710005e-08 
       7.487738891205e+01       4.424062538952e-08 
       8.401381216927e+01       1.582066908758e-08 
       9.426504767018e+01       2.823456317419e-09 
       1.057671230816e+02       4.231193885650e-11 
