# Matter power spectrum P(k) at redshift z=99
# for k=1.04206e-05 to 105.767 h/Mpc,
# number of wavenumbers equal to 192
#    1:k (h/Mpc)              2:P (Mpc/h)^3        
       1.042057218184e-05       7.036260932750e-03 
       1.169207429241e-05       7.864016112699e-03 
       1.311872312515e-05       8.789148146319e-03 
       1.471944944330e-05       9.823114231774e-03 
       1.651549391254e-05       1.097871820180e-02 
       1.853068895179e-05       1.227026616226e-02 
       2.079177497483e-05       1.371375238699e-02 
       2.332875521946e-05       1.532704927788e-02 
       2.617529387212e-05       1.713013404536e-02 
       2.936916277130e-05       1.914533012199e-02 
       3.295274261680e-05       2.139759140797e-02 
       3.697358533591e-05       2.391480137040e-02 
       4.148504506860e-05       2.672812602003e-02 
       4.654698614451e-05       2.987239551193e-02 
       5.222657744628e-05       3.338653472413e-02 
       5.859918369976e-05       3.731404485835e-02 
       6.574936551816e-05       4.170354105619e-02 
       7.377200147002e-05       4.660934854107e-02 
       8.277354706016e-05       5.209217846173e-02 
       9.287344732953e-05       5.821986954616e-02 
       1.042057218184e-04       6.506822429608e-02 
       1.169207429241e-04       7.272193815413e-02 
       1.311872312515e-04       8.127563725302e-02 
       1.471944944330e-04       9.083503013437e-02 
       1.651549391254e-04       1.015181935739e-01 
       1.853068895179e-04       1.134570015903e-01 
       2.079177497483e-04       1.267987050033e-01 
       2.332875521946e-04       1.417076918629e-01 
       2.617529387212e-04       1.583674217256e-01 
       2.936916277130e-04       1.769825662037e-01 
       3.295274261680e-04       1.977813492706e-01 
       3.697358533591e-04       2.210181081950e-01 
       4.148504506860e-04       2.469760656795e-01 
       4.654698614451e-04       2.759703107657e-01 
       5.222657744628e-04       3.083509593291e-01 
       5.859918369976e-04       3.445064541846e-01 
       6.574936551816e-04       3.848669205363e-01 
       7.377200147002e-04       4.299074569212e-01 
       8.277354706016e-04       4.801511872408e-01 
       9.287344732953e-04       5.361717749312e-01 
       1.042057218184e-03       5.985950256520e-01 
       1.169207429241e-03       6.680990085971e-01 
       1.311872312515e-03       7.454119175412e-01 
       1.471944944330e-03       8.313216522184e-01 
       1.651549391254e-03       9.266333535682e-01 
       1.853068895179e-03       1.032173776673e+00 
       2.079177497483e-03       1.148765179241e+00 
       2.332875521946e-03       1.277186728045e+00 
       2.617529387212e-03       1.418123333305e+00 
       2.936916277130e-03       1.572096673285e+00 
       3.295274261680e-03       1.739376796060e+00 
       3.697358533591e-03       1.919873488114e+00 
       4.148504506860e-03       2.113010509468e+00 
       4.654698614451e-03       2.317593827083e+00 
       5.222657744628e-03       2.531687150845e+00 
       5.859918369976e-03       2.752523479334e+00 
       6.574936551816e-03       2.976481706779e+00 
       7.377200147002e-03       3.199135653723e+00 
       8.277354706016e-03       3.415370684713e+00 
       9.287344732953e-03       3.619513691589e+00 
       1.042057218184e-02       3.805350877887e+00 
       1.169207429241e-02       3.965988403671e+00 
       1.311872312515e-02       4.093618645070e+00 
       1.471944944329e-02       4.179527437277e+00 
       1.651549391202e-02       4.214689031830e+00 
       1.853068892068e-02       4.190948273152e+00 
       2.079177387373e-02       4.102318433321e+00 
       2.332873074132e-02       3.946346249732e+00 
       2.617493570260e-02       3.726106452700e+00 
       2.936555805635e-02       3.452304894572e+00 
       3.292682347815e-02       3.144885261833e+00 
       3.683709330358e-02       2.833918126087e+00 
       4.095543211618e-02       2.555422026113e+00 
       4.502448509192e-02       2.335468108839e+00 
       4.884708991234e-02       2.175189032747e+00 
       5.239007941194e-02       2.059453240006e+00 
       5.570651898045e-02       1.972022867041e+00 
       5.886102379382e-02       1.900909925593e+00 
       6.190687314325e-02       1.837870451400e+00 
       6.488442645362e-02       1.777277438336e+00 
       6.782403073702e-02       1.715384634398e+00 
       7.074891559932e-02       1.649874795690e+00 
       7.367733710877e-02       1.579626785976e+00 
       7.662405936252e-02       1.504546052463e+00 
       7.960136626090e-02       1.425426994028e+00 
       8.261975780275e-02       1.343774524749e+00 
       8.568843639560e-02       1.261597533843e+00 
       8.881565226857e-02       1.181170619966e+00 
       9.200895293480e-02       1.104781297926e+00 
       9.527536616595e-02       1.034476388931e+00 
       9.862153605116e-02       9.718454571757e-01 
       1.020538253516e-01       9.178482705371e-01 
       1.055783932188e-01       8.727048838503e-01 
       1.092012546125e-01       8.358615311179e-01 
       1.129283259241e-01       8.059900448655e-01 
       1.167654600782e-01       7.810915662900e-01 
       1.207184735361e-01       7.586671197879e-01 
       1.247931670502e-01       7.360195129102e-01 
       1.289953416147e-01       7.106832592438e-01 
       1.333308107853e-01       6.809100974339e-01 
       1.378054103573e-01       6.460970139563e-01 
       1.424250062616e-01       6.069935649146e-01 
       1.471955014621e-01       5.655717641690e-01 
       1.521228425855e-01       5.245607652949e-01 
       1.572130269831e-01       4.867813613703e-01 
       1.624721109113e-01       4.544239640105e-01 
       1.679062195059e-01       4.285039708101e-01 
       1.735215592257e-01       4.086131462477e-01 
       1.793244334403e-01       3.930017038414e-01 
       1.853212618387e-01       3.791507671476e-01 
       1.915186043438e-01       3.642585362298e-01 
       1.979231902264e-01       3.462457935040e-01 
       2.045419531355e-01       3.248425844960e-01 
       2.113820727907e-01       3.016309982869e-01 
       2.184510241392e-01       2.790941650862e-01 
       2.257566348590e-01       2.594049774057e-01 
       2.333071522061e-01       2.436574379548e-01 
       2.411113203738e-01       2.314745609275e-01 
       2.491784697558e-01       2.210870120832e-01 
       2.575186198216e-01       2.103425211360e-01 
       2.661425977175e-01       1.980148035125e-01 
       2.750621752533e-01       1.843624239080e-01 
       2.842902276420e-01       1.708901209693e-01 
       2.938409182814e-01       1.592215448546e-01 
       3.037299150763e-01       1.497662295763e-01 
       3.139746453704e-01       1.416577831168e-01 
       3.245945986384e-01       1.335923021391e-01 
       3.356116888317e-01       1.248649939454e-01 
       3.470506919522e-01       1.159892370111e-01 
       3.589397793903e-01       1.078904128081e-01 
       3.713111743434e-01       1.009720696258e-01 
       3.842019680016e-01       9.468559761566e-02 
       3.976551452949e-01       8.837838636865e-02 
       4.117208885985e-01       8.202555758478e-02 
       4.264582545434e-01       7.609813713304e-02 
       4.419373581600e-01       7.076112504385e-02 
       4.582422565474e-01       6.574152426650e-02 
       4.754748117013e-01       6.077997044638e-02 
       4.937599462750e-01       5.603767139687e-02 
       5.132529154734e-01       5.166497291028e-02 
       5.341495508456e-01       4.746222761743e-02 
       5.567009681437e-01       4.339302664281e-02 
       5.812351068128e-01       3.954512408095e-02 
       6.081889018991e-01       3.583568012589e-02 
       6.381571986869e-01       3.225124664782e-02 
       6.719680157595e-01       2.879164010207e-02 
       7.107980430614e-01       2.542204181368e-02 
       7.563432000599e-01       2.213450910975e-02 
       8.110382507288e-01       1.892121470131e-02 
       8.782180910137e-01       1.579999207151e-02 
       9.618344028334e-01       1.283494505222e-02 
       1.065122976209e+00       1.014346399252e-02 
       1.188861021489e+00       7.851322630388e-03 
       1.331974042180e+00       6.008004646592e-03 
       1.494067066756e+00       4.572639131014e-03 
       1.676302948959e+00       3.469075904462e-03 
       1.880835468917e+00       2.624981785193e-03 
       2.110331571097e+00       1.981381048367e-03 
       2.367830942715e+00       1.491974526998e-03 
       2.656750013695e+00       1.120766165048e-03 
       2.980922543821e+00       8.399168642837e-04 
       3.344650105012e+00       6.279334681446e-04 
       3.752759141007e+00       4.682978602266e-04 
       4.210665010760e+00       3.483640664781e-04 
       4.724443846956e+00       2.584632557742e-04 
       5.300913182598e+00       1.912273661704e-04 
       5.947722415527e+00       1.410584951820e-04 
       6.673454311287e+00       1.037132810802e-04 
       7.487738891205e+00       7.598197447509e-05 
       8.401381216927e+00       5.544376756706e-05 
       9.426504767018e+00       4.027529809438e-05 
       1.057671230816e+01       2.910713270157e-05 
       1.186726639560e+01       2.091237593037e-05 
       1.331529189798e+01       1.492271656161e-05 
       1.494000323395e+01       1.056418462370e-05 
       1.676295933582e+01       7.409224105403e-06 
       1.880834972351e+01       5.139455976886e-06 
       2.110331548474e+01       3.518555577219e-06 
       2.367830942083e+01       2.371380339003e-06 
       2.656750013685e+01       1.568314292061e-06 
       2.980922543821e+01       1.013727853942e-06 
       3.344650105012e+01       6.370912590641e-07 
       3.752759141006e+01       3.866384382125e-07 
       4.210665010760e+01       2.245162470204e-07 
       4.724443846956e+01       1.231324329562e-07 
       5.300913182598e+01       6.252610184904e-08 
       5.947722415527e+01       2.847762583704e-08 
       6.673454311287e+01       1.095620877599e-08 
       7.487738891205e+01       3.101781169513e-09 
       8.401381216927e+01       3.935688920954e-10 
       9.426504767018e+01       2.279317167443e-11 
       1.057671230816e+02       4.004041855369e-10 
