# Matter power spectrum P(k) at redshift z=99
# for k=1.04206e-05 to 105.767 h/Mpc,
# number of wavenumbers equal to 192
#    1:k (h/Mpc)              2:P (Mpc/h)^3        
       1.042057218184e-05       7.036260929415e-03 
       1.169207429241e-05       7.864016108971e-03 
       1.311872312515e-05       8.789148142154e-03 
       1.471944944330e-05       9.823114227118e-03 
       1.651549391254e-05       1.097871819661e-02 
       1.853068895179e-05       1.227026615646e-02 
       2.079177497483e-05       1.371375238049e-02 
       2.332875521946e-05       1.532704927063e-02 
       2.617529387212e-05       1.713013403727e-02 
       2.936916277130e-05       1.914533011294e-02 
       3.295274261680e-05       2.139759139789e-02 
       3.697358533591e-05       2.391480135902e-02 
       4.148504506860e-05       2.672812600752e-02 
       4.654698614451e-05       2.987239549781e-02 
       5.222657744628e-05       3.338653470848e-02 
       5.859918369976e-05       3.731404483965e-02 
       6.574936551816e-05       4.170354103631e-02 
       7.377200147002e-05       4.660934851922e-02 
       8.277354706016e-05       5.209217843665e-02 
       9.287344732953e-05       5.821986951860e-02 
       1.042057218184e-04       6.506822426538e-02 
       1.169207429241e-04       7.272193811955e-02 
       1.311872312515e-04       8.127563721465e-02 
       1.471944944330e-04       9.083503009160e-02 
       1.651549391254e-04       1.015181935261e-01 
       1.853068895179e-04       1.134570015371e-01 
       2.079177497483e-04       1.267987049437e-01 
       2.332875521946e-04       1.417076917968e-01 
       2.617529387212e-04       1.583674216516e-01 
       2.936916277130e-04       1.769825661222e-01 
       3.295274261680e-04       1.977813491795e-01 
       3.697358533591e-04       2.210181080940e-01 
       4.148504506860e-04       2.469760655678e-01 
       4.654698614451e-04       2.759703106423e-01 
       5.222657744628e-04       3.083509591932e-01 
       5.859918369976e-04       3.445064540358e-01 
       6.574936551816e-04       3.848669203742e-01 
       7.377200147002e-04       4.299074567461e-01 
       8.277354706016e-04       4.801511870537e-01 
       9.287344732953e-04       5.361717747342e-01 
       1.042057218184e-03       5.985950254489e-01 
       1.169207429241e-03       6.680990083946e-01 
       1.311872312515e-03       7.454119173503e-01 
       1.471944944330e-03       8.313216520507e-01 
       1.651549391254e-03       9.266333534579e-01 
       1.853068895179e-03       1.032173776667e+00 
       2.079177497483e-03       1.148765179429e+00 
       2.332875521946e-03       1.277186728558e+00 
       2.617529387212e-03       1.418123334329e+00 
       2.936916277130e-03       1.572096675117e+00 
       3.295274261680e-03       1.739376799197e+00 
       3.697358533591e-03       1.919873493181e+00 
       4.148504506860e-03       2.113010517681e+00 
       4.654698614451e-03       2.317593857912e+00 
       5.222657744628e-03       2.531687171614e+00 
       5.859918369976e-03       2.752523303391e+00 
       6.574936551816e-03       2.976481704008e+00 
       7.377200147002e-03       3.199134985742e+00 
       8.277354706016e-03       3.415370481556e+00 
       9.287344732953e-03       3.619513206639e+00 
       1.042057218184e-02       3.805351171717e+00 
       1.169207429241e-02       3.965988257533e+00 
       1.311872312515e-02       4.093620159008e+00 
       1.471944944329e-02       4.179528032983e+00 
       1.651549391202e-02       4.214690559078e+00 
       1.853068892068e-02       4.190950990805e+00 
       2.079177387373e-02       4.102319935330e+00 
       2.332873074132e-02       3.946354617145e+00 
       2.617493570260e-02       3.726112600385e+00 
       2.936555805635e-02       3.452317759916e+00 
       3.292682347815e-02       3.144902224223e+00 
       3.683709330358e-02       2.833929910862e+00 
       4.095543211618e-02       2.555441183846e+00 
       4.502448509192e-02       2.335490015502e+00 
       4.884708991234e-02       2.175212968936e+00 
       5.239007941194e-02       2.059481907163e+00 
       5.570651898045e-02       1.972053310767e+00 
       5.886102379382e-02       1.900944233741e+00 
       6.190687314325e-02       1.837907178846e+00 
       6.488442645362e-02       1.777317797754e+00 
       6.782403073702e-02       1.715426383837e+00 
       7.074891559932e-02       1.649916079905e+00 
       7.367733710877e-02       1.579669274023e+00 
       7.662405936252e-02       1.504589472490e+00 
       7.960136626090e-02       1.425474779848e+00 
       8.261975780275e-02       1.343821343136e+00 
       8.568843639560e-02       1.261644605095e+00 
       8.881565226857e-02       1.181218556924e+00 
       9.200895293480e-02       1.104830462780e+00 
       9.527536616595e-02       1.034526408355e+00 
       9.862153605116e-02       9.718999122915e-01 
       1.020538253516e-01       9.178988764046e-01 
       1.055783932188e-01       8.727584152658e-01 
       1.092012546125e-01       8.359166472821e-01 
       1.129283259241e-01       8.060467127788e-01 
       1.167654600782e-01       7.811499264151e-01 
       1.207184735361e-01       7.587262799936e-01 
       1.247931670502e-01       7.360808999440e-01 
       1.289953416147e-01       7.107454558227e-01 
       1.333308107853e-01       6.809725257545e-01 
       1.378054103573e-01       6.461599722945e-01 
       1.424250062616e-01       6.070569377776e-01 
       1.471955014621e-01       5.656360537881e-01 
       1.521228425855e-01       5.246242978512e-01 
       1.572130269831e-01       4.868447559775e-01 
       1.624721109113e-01       4.544877847759e-01 
       1.679062195059e-01       4.285680076868e-01 
       1.735215592257e-01       4.086780421152e-01 
       1.793244334403e-01       3.930675329984e-01 
       1.853212618387e-01       3.792201332390e-01 
       1.915186043438e-01       3.643277182588e-01 
       1.979231902264e-01       3.463168513687e-01 
       2.045419531355e-01       3.249145343782e-01 
       2.113820727907e-01       3.016975465844e-01 
       2.184510241392e-01       2.791607077377e-01 
       2.257566348590e-01       2.594710837352e-01 
       2.333071522061e-01       2.437235222213e-01 
       2.411113203738e-01       2.315407749010e-01 
       2.491784697558e-01       2.211536603096e-01 
       2.575186198216e-01       2.104120211135e-01 
       2.661425977175e-01       1.980833708700e-01 
       2.750621752533e-01       1.844287504071e-01 
       2.842902276420e-01       1.709555135353e-01 
       2.938409182814e-01       1.592859265577e-01 
       3.037299150763e-01       1.498308510873e-01 
       3.139746453704e-01       1.417221329272e-01 
       3.245945986384e-01       1.336567619776e-01 
       3.356116888317e-01       1.249287966922e-01 
       3.470506919522e-01       1.160518716320e-01 
       3.589397793903e-01       1.079524919399e-01 
       3.713111743434e-01       1.010336246171e-01 
       3.842019680016e-01       9.474669698653e-02 
       3.976551452949e-01       8.843883430962e-02 
       4.117208885985e-01       8.208526007049e-02 
       4.264582545434e-01       7.615700495628e-02 
       4.419373581600e-01       7.081930165733e-02 
       4.582422565474e-01       6.579899999292e-02 
       4.754748117013e-01       6.083651941735e-02 
       4.937599462750e-01       5.609333827076e-02 
       5.132529154734e-01       5.171977710765e-02 
       5.341495508456e-01       4.751607887953e-02 
       5.567009681437e-01       4.344585485974e-02 
       5.812351068128e-01       3.959688682946e-02 
       6.081889018991e-01       3.588630304618e-02 
       6.381571986869e-01       3.230064686237e-02 
       6.719680157595e-01       2.883963115274e-02 
       7.107980430614e-01       2.546866448340e-02 
       7.563432000599e-01       2.217952679334e-02 
       8.110382507288e-01       1.896441881742e-02 
       8.782180910137e-01       1.584115946745e-02 
       9.618344028334e-01       1.287379507192e-02 
       1.065122976209e+00       1.017976592958e-02 
       1.188861021489e+00       7.884999003360e-03 
       1.331974042180e+00       6.038986071885e-03 
       1.494067066756e+00       4.601077708038e-03 
       1.676302948959e+00       3.495065836269e-03 
       1.880835468917e+00       2.648699582375e-03 
       2.110331571097e+00       2.002953305712e-03 
       2.367830942715e+00       1.511538271649e-03 
       2.656750013695e+00       1.138473985000e-03 
       2.980922543821e+00       8.558905870302e-04 
       3.344650105012e+00       6.423108683231e-04 
       3.752759141007e+00       4.812170667274e-04 
       4.210665010760e+00       3.599457297191e-04 
       4.724443846956e+00       2.688196296714e-04 
       5.300913182598e+00       2.004641132064e-04 
       5.947722415527e+00       1.492817764658e-04 
       6.673454311287e+00       1.110157286612e-04 
       7.487738891205e+00       8.244971412665e-05 
       8.401381216927e+00       6.115686934228e-05 
       9.426504767018e+00       4.530758984132e-05 
       1.057671230816e+01       3.352586047258e-05 
       1.186726639560e+01       2.477868047668e-05 
       1.331529189798e+01       1.829244371297e-05 
       1.494000323395e+01       1.348856176875e-05 
       1.676295933582e+01       9.934601371271e-06 
       1.880834972351e+01       7.308153195682e-06 
       2.110331548474e+01       5.369243205095e-06 
       2.367830942083e+01       3.939339931149e-06 
       2.656750013685e+01       2.885810026394e-06 
       2.980922543821e+01       2.110315457481e-06 
       3.344650105012e+01       1.540051676346e-06 
       3.752759141006e+01       1.121038316866e-06 
       4.210665010760e+01       8.134674255518e-07 
       4.724443846956e+01       5.878959069102e-07 
       5.300913182598e+01       4.226510895570e-07 
       5.947722415527e+01       3.017479983252e-07 
       6.673454311287e+01       2.134275829644e-07 
       7.487738891205e+01       1.490761694123e-07 
       8.401381216927e+01       1.023594160920e-07 
       9.426504767018e+01       6.865755524528e-08 
       1.057671230816e+02       4.458569617447e-08 
