# Matter power spectrum P(k) at redshift z=99
# for k=1.04206e-05 to 105.767 h/Mpc,
# number of wavenumbers equal to 192
#    1:k (h/Mpc)              2:P (Mpc/h)^3        
       1.042057218184e-05       7.036260932128e-03 
       1.169207429241e-05       7.864016112002e-03 
       1.311872312515e-05       8.789148145541e-03 
       1.471944944330e-05       9.823114230904e-03 
       1.651549391254e-05       1.097871820083e-02 
       1.853068895179e-05       1.227026616118e-02 
       2.079177497483e-05       1.371375238578e-02 
       2.332875521946e-05       1.532704927653e-02 
       2.617529387212e-05       1.713013404385e-02 
       2.936916277130e-05       1.914533012030e-02 
       3.295274261680e-05       2.139759140609e-02 
       3.697358533591e-05       2.391480136827e-02 
       4.148504506860e-05       2.672812601773e-02 
       4.654698614451e-05       2.987239550929e-02 
       5.222657744628e-05       3.338653472122e-02 
       5.859918369976e-05       3.731404485471e-02 
       6.574936551816e-05       4.170354105246e-02 
       7.377200147002e-05       4.660934853702e-02 
       8.277354706016e-05       5.209217845699e-02 
       9.287344732953e-05       5.821986954101e-02 
       1.042057218184e-04       6.506822429036e-02 
       1.169207429241e-04       7.272193814782e-02 
       1.311872312515e-04       8.127563724589e-02 
       1.471944944330e-04       9.083503012639e-02 
       1.651549391254e-04       1.015181935650e-01 
       1.853068895179e-04       1.134570015804e-01 
       2.079177497483e-04       1.267987049923e-01 
       2.332875521946e-04       1.417076918506e-01 
       2.617529387212e-04       1.583674217120e-01 
       2.936916277130e-04       1.769825661883e-01 
       3.295274261680e-04       1.977813492535e-01 
       3.697358533591e-04       2.210181081761e-01 
       4.148504506860e-04       2.469760656585e-01 
       4.654698614451e-04       2.759703107425e-01 
       5.222657744628e-04       3.083509593035e-01 
       5.859918369976e-04       3.445064541564e-01 
       6.574936551816e-04       3.848669205055e-01 
       7.377200147002e-04       4.299074568877e-01 
       8.277354706016e-04       4.801511872047e-01 
       9.287344732953e-04       5.361717748928e-01 
       1.042057218184e-03       5.985950256118e-01 
       1.169207429241e-03       6.680990085562e-01 
       1.311872312515e-03       7.454119175011e-01 
       1.471944944330e-03       8.313216521804e-01 
       1.651549391254e-03       9.266333535368e-01 
       1.853068895179e-03       1.032173776653e+00 
       2.079177497483e-03       1.148765179242e+00 
       2.332875521946e-03       1.277186728078e+00 
       2.617529387212e-03       1.418123333386e+00 
       2.936916277130e-03       1.572096673437e+00 
       3.295274261680e-03       1.739376796354e+00 
       3.697358533591e-03       1.919873488528e+00 
       4.148504506860e-03       2.113010510049e+00 
       4.654698614451e-03       2.317593845675e+00 
       5.222657744628e-03       2.531687353033e+00 
       5.859918369976e-03       2.752523612181e+00 
       6.574936551816e-03       2.976481639716e+00 
       7.377200147002e-03       3.199135852859e+00 
       8.277354706016e-03       3.415370398635e+00 
       9.287344732953e-03       3.619513862227e+00 
       1.042057218184e-02       3.805350564669e+00 
       1.169207429241e-02       3.965987798400e+00 
       1.311872312515e-02       4.093619509167e+00 
       1.471944944329e-02       4.179527451181e+00 
       1.651549391202e-02       4.214690153704e+00 
       1.853068892068e-02       4.190947876990e+00 
       2.079177387373e-02       4.102321803001e+00 
       2.332873074132e-02       3.946349511043e+00 
       2.617493570260e-02       3.726106193445e+00 
       2.936555805635e-02       3.452308873171e+00 
       3.292682347815e-02       3.144887584636e+00 
       3.683709330358e-02       2.833916973960e+00 
       4.095543211618e-02       2.555420355295e+00 
       4.502448509192e-02       2.335465409367e+00 
       4.884708991234e-02       2.175187003015e+00 
       5.239007941194e-02       2.059446580614e+00 
       5.570651898045e-02       1.972017138634e+00 
       5.886102379382e-02       1.900904764739e+00 
       6.190687314325e-02       1.837863168278e+00 
       6.488442645362e-02       1.777270557736e+00 
       6.782403073702e-02       1.715378139340e+00 
       7.074891559932e-02       1.649866094011e+00 
       7.367733710877e-02       1.579617141879e+00 
       7.662405936252e-02       1.504535882364e+00 
       7.960136626090e-02       1.425417464914e+00 
       8.261975780275e-02       1.343762008868e+00 
       8.568843639560e-02       1.261582694994e+00 
       8.881565226857e-02       1.181154660515e+00 
       9.200895293480e-02       1.104764624191e+00 
       9.527536616595e-02       1.034458521301e+00 
       9.862153605116e-02       9.718266572766e-01 
       1.020538253516e-01       9.178272436191e-01 
       1.055783932188e-01       8.726833377861e-01 
       1.092012546125e-01       8.358376237242e-01 
       1.129283259241e-01       8.059655634551e-01 
       1.167654600782e-01       7.810653877047e-01 
       1.207184735361e-01       7.586392298264e-01 
       1.247931670502e-01       7.359896788091e-01 
       1.289953416147e-01       7.106524296921e-01 
       1.333308107853e-01       6.808773566063e-01 
       1.378054103573e-01       6.460630489008e-01 
       1.424250062616e-01       6.069580363371e-01 
       1.471955014621e-01       5.655346883580e-01 
       1.521228425855e-01       5.245244389213e-01 
       1.572130269831e-01       4.867421928141e-01 
       1.624721109113e-01       4.543829355924e-01 
       1.679062195059e-01       4.284611875790e-01 
       1.735215592257e-01       4.085685111345e-01 
       1.793244334403e-01       3.929551450374e-01 
       1.853212618387e-01       3.791018893775e-01 
       1.915186043438e-01       3.642073926020e-01 
       1.979231902264e-01       3.461940506372e-01 
       2.045419531355e-01       3.247887057774e-01 
       2.113820727907e-01       3.015747817653e-01 
       2.184510241392e-01       2.790379887113e-01 
       2.257566348590e-01       2.593470606487e-01 
       2.333071522061e-01       2.435976412058e-01 
       2.411113203738e-01       2.314124338265e-01 
       2.491784697558e-01       2.210231828011e-01 
       2.575186198216e-01       2.102767085655e-01 
       2.661425977175e-01       1.979474092685e-01 
       2.750621752533e-01       1.842943051085e-01 
       2.842902276420e-01       1.708205801292e-01 
       2.938409182814e-01       1.591506867484e-01 
       3.037299150763e-01       1.496935938154e-01 
       3.139746453704e-01       1.415833221407e-01 
       3.245945986384e-01       1.335160036621e-01 
       3.356116888317e-01       1.247877824517e-01 
       3.470506919522e-01       1.159106226229e-01 
       3.589397793903e-01       1.078106157760e-01 
       3.713111743434e-01       1.008911250314e-01 
       3.842019680016e-01       9.460279221276e-02 
       3.976551452949e-01       8.829446211401e-02 
       4.117208885985e-01       8.194065798178e-02 
       4.264582545434e-01       7.601211400862e-02 
       4.419373581600e-01       7.067375232410e-02 
       4.582422565474e-01       6.565300946048e-02 
       4.754748117013e-01       6.069051539553e-02 
       4.937599462750e-01       5.594719263501e-02 
       5.132529154734e-01       5.157351973465e-02 
       5.341495508456e-01       4.736971930958e-02 
       5.567009681437e-01       4.329989350204e-02 
       5.812351068128e-01       3.945097688110e-02 
       6.081889018991e-01       3.574078545665e-02 
       6.381571986869e-01       3.215565546846e-02 
       6.719680157595e-01       2.869526945743e-02 
       7.107980430614e-01       2.532508530765e-02 
       7.563432000599e-01       2.203701882895e-02 
       8.110382507288e-01       1.882345514326e-02 
       8.782180910137e-01       1.570214576654e-02 
       9.618344028334e-01       1.273727321746e-02 
       1.065122976209e+00       1.004641574310e-02 
       1.188861021489e+00       7.755388099099e-03 
       1.331974042180e+00       5.913706614244e-03 
       1.494067066756e+00       4.480444104468e-03 
       1.676302948959e+00       3.379406860036e-03 
       1.880835468917e+00       2.538241684453e-03 
       2.110331571097e+00       1.897931150738e-03 
       2.367830942715e+00       1.412107633513e-03 
       2.656750013695e+00       1.044768989843e-03 
       2.980922543821e+00       7.680188308600e-04 
       3.344650105012e+00       5.603513541453e-04 
       3.752759141007e+00       4.052244890850e-04 
       4.210665010760e+00       2.899454631263e-04 
       4.724443846956e+00       2.048143689186e-04 
       5.300913182598e+00       1.424318151096e-04 
       5.947722415527e+00       9.715706418783e-05 
       6.673454311287e+00       6.470124988187e-05 
       7.487738891205e+00       4.180284473202e-05 
       8.401381216927e+00       2.598488177350e-05 
       9.426504767018e+00       1.535565034049e-05 
       1.057671230816e+01       8.478634629177e-06 
       1.186726639560e+01       4.255344641241e-06 
       1.331529189798e+01       1.849249376313e-06 
       1.494000323395e+01       6.282633258075e-07 
       1.676295933582e+01       1.236667717578e-07 
       1.880834972351e+01       7.516636089564e-10 
       2.110331548474e+01       3.635610824830e-08 
       2.367830942083e+01       9.926201485254e-08 
       2.656750013685e+01       1.299431269758e-07 
       2.980922543821e+01       1.184888152835e-07 
       3.344650105012e+01       8.158212912119e-08 
       3.752759141006e+01       4.199786967025e-08 
       4.210665010760e+01       1.468434831204e-08 
       4.724443846956e+01       2.498812326330e-09 
       5.300913182598e+01       1.340001814234e-12 
       5.947722415527e+01       5.157100922912e-10 
       6.673454311287e+01       6.727021688111e-10 
       7.487738891205e+01       3.011456500574e-10 
       8.401381216927e+01       4.171379094874e-11 
       9.426504767018e+01       2.172130829064e-13 
       1.057671230816e+02       4.513720480895e-12 
