# Matter power spectrum P(k) at redshift z=99
# for k=1.04206e-05 to 105.767 h/Mpc,
# number of wavenumbers equal to 192
#    1:k (h/Mpc)              2:P (Mpc/h)^3        
       1.042057218184e-05       7.036260929944e-03 
       1.169207429241e-05       7.864016109561e-03 
       1.311872312515e-05       8.789148142813e-03 
       1.471944944330e-05       9.823114227856e-03 
       1.651549391254e-05       1.097871819743e-02 
       1.853068895179e-05       1.227026615738e-02 
       2.079177497483e-05       1.371375238152e-02 
       2.332875521946e-05       1.532704927178e-02 
       2.617529387212e-05       1.713013403855e-02 
       2.936916277130e-05       1.914533011437e-02 
       3.295274261680e-05       2.139759139948e-02 
       3.697358533591e-05       2.391480136083e-02 
       4.148504506860e-05       2.672812600950e-02 
       4.654698614451e-05       2.987239550004e-02 
       5.222657744628e-05       3.338653471096e-02 
       5.859918369976e-05       3.731404484261e-02 
       6.574936551816e-05       4.170354103946e-02 
       7.377200147002e-05       4.660934852268e-02 
       8.277354706016e-05       5.209217844062e-02 
       9.287344732953e-05       5.821986952297e-02 
       1.042057218184e-04       6.506822427024e-02 
       1.169207429241e-04       7.272193812503e-02 
       1.311872312515e-04       8.127563722073e-02 
       1.471944944330e-04       9.083503009838e-02 
       1.651549391254e-04       1.015181935337e-01 
       1.853068895179e-04       1.134570015455e-01 
       2.079177497483e-04       1.267987049532e-01 
       2.332875521946e-04       1.417076918073e-01 
       2.617529387212e-04       1.583674216633e-01 
       2.936916277130e-04       1.769825661351e-01 
       3.295274261680e-04       1.977813491940e-01 
       3.697358533591e-04       2.210181081100e-01 
       4.148504506860e-04       2.469760655855e-01 
       4.654698614451e-04       2.759703106618e-01 
       5.222657744628e-04       3.083509592148e-01 
       5.859918369976e-04       3.445064540594e-01 
       6.574936551816e-04       3.848669203999e-01 
       7.377200147002e-04       4.299074567739e-01 
       8.277354706016e-04       4.801511870833e-01 
       9.287344732953e-04       5.361717747654e-01 
       1.042057218184e-03       5.985950254813e-01 
       1.169207429241e-03       6.680990084266e-01 
       1.311872312515e-03       7.454119173806e-01 
       1.471944944330e-03       8.313216520771e-01 
       1.651549391254e-03       9.266333534755e-01 
       1.853068895179e-03       1.032173776667e+00 
       2.079177497483e-03       1.148765179404e+00 
       2.332875521946e-03       1.277186728477e+00 
       2.617529387212e-03       1.418123334168e+00 
       2.936916277130e-03       1.572096674827e+00 
       3.295274261680e-03       1.739376798670e+00 
       3.697358533591e-03       1.919873492401e+00 
       4.148504506860e-03       2.113010516379e+00 
       4.654698614451e-03       2.317593855746e+00 
       5.222657744628e-03       2.531687215839e+00 
       5.859918369976e-03       2.752523298185e+00 
       6.574936551816e-03       2.976481695821e+00 
       7.377200147002e-03       3.199134972914e+00 
       8.277354706016e-03       3.415370807456e+00 
       9.287344732953e-03       3.619513165510e+00 
       1.042057218184e-02       3.805351098186e+00 
       1.169207429241e-02       3.965988775752e+00 
       1.311872312515e-02       4.093620050240e+00 
       1.471944944329e-02       4.179528610951e+00 
       1.651549391202e-02       4.214690251341e+00 
       1.853068892068e-02       4.190950642806e+00 
       2.079177387373e-02       4.102324460405e+00 
       2.332873074132e-02       3.946349981288e+00 
       2.617493570260e-02       3.726111617954e+00 
       2.936555805635e-02       3.452311932768e+00 
       3.292682347815e-02       3.144897449771e+00 
       3.683709330358e-02       2.833926369013e+00 
       4.095543211618e-02       2.555439593416e+00 
       4.502448509192e-02       2.335488262982e+00 
       4.884708991234e-02       2.175210388460e+00 
       5.239007941194e-02       2.059477316407e+00 
       5.570651898045e-02       1.972053368698e+00 
       5.886102379382e-02       1.900938988279e+00 
       6.190687314325e-02       1.837899835464e+00 
       6.488442645362e-02       1.777311481871e+00 
       6.782403073702e-02       1.715420086648e+00 
       7.074891559932e-02       1.649909190879e+00 
       7.367733710877e-02       1.579663475103e+00 
       7.662405936252e-02       1.504583835640e+00 
       7.960136626090e-02       1.425466712295e+00 
       8.261975780275e-02       1.343814039949e+00 
       8.568843639560e-02       1.261636594057e+00 
       8.881565226857e-02       1.181210904030e+00 
       9.200895293480e-02       1.104822554041e+00 
       9.527536616595e-02       1.034518359053e+00 
       9.862153605116e-02       9.718916921110e-01 
       1.020538253516e-01       9.178905219208e-01 
       1.055783932188e-01       8.727495791323e-01 
       1.092012546125e-01       8.359057684944e-01 
       1.129283259241e-01       8.060386054857e-01 
       1.167654600782e-01       7.811405460047e-01 
       1.207184735361e-01       7.587164937861e-01 
       1.247931670502e-01       7.360707795769e-01 
       1.289953416147e-01       7.107358132328e-01 
       1.333308107853e-01       6.809636885806e-01 
       1.378054103573e-01       6.461506690520e-01 
       1.424250062616e-01       6.070471877463e-01 
       1.471955014621e-01       5.656252426876e-01 
       1.521228425855e-01       5.246137379957e-01 
       1.572130269831e-01       4.868348807153e-01 
       1.624721109113e-01       4.544776912296e-01 
       1.679062195059e-01       4.285573254854e-01 
       1.735215592257e-01       4.086675066318e-01 
       1.793244334403e-01       3.930569754400e-01 
       1.853212618387e-01       3.792070185343e-01 
       1.915186043438e-01       3.643143717566e-01 
       1.979231902264e-01       3.463032091031e-01 
       2.045419531355e-01       3.248996130501e-01 
       2.113820727907e-01       3.016870100166e-01 
       2.184510241392e-01       2.791500551437e-01 
       2.257566348590e-01       2.594603297922e-01 
       2.333071522061e-01       2.437126937874e-01 
       2.411113203738e-01       2.315298047971e-01 
       2.491784697558e-01       2.211432379064e-01 
       2.575186198216e-01       2.103987600995e-01 
       2.661425977175e-01       1.980706856972e-01 
       2.750621752533e-01       1.844181190504e-01 
       2.842902276420e-01       1.709449913968e-01 
       2.938409182814e-01       1.592758781402e-01 
       3.037299150763e-01       1.498202173970e-01 
       3.139746453704e-01       1.417116905052e-01 
       3.245945986384e-01       1.336461042715e-01 
       3.356116888317e-01       1.249186369039e-01 
       3.470506919522e-01       1.160417312922e-01 
       3.589397793903e-01       1.079423994935e-01 
       3.713111743434e-01       1.010237526037e-01 
       3.842019680016e-01       9.473678179715e-02 
       3.976551452949e-01       8.842895870874e-02 
       4.117208885985e-01       8.207546143286e-02 
       4.264582545434e-01       7.614740231292e-02 
       4.419373581600e-01       7.080972178084e-02 
       4.582422565474e-01       6.578952680978e-02 
       4.754748117013e-01       6.082718599160e-02 
       4.937599462750e-01       5.608410153292e-02 
       5.132529154734e-01       5.171066141816e-02 
       5.341495508456e-01       4.750710410768e-02 
       5.567009681437e-01       4.343702207356e-02 
       5.812351068128e-01       3.958821449224e-02 
       6.081889018991e-01       3.587777788046e-02 
       6.381571986869e-01       3.229231627069e-02 
       6.719680157595e-01       2.883148095409e-02 
       7.107980430614e-01       2.546073907008e-02 
       7.563432000599e-01       2.217183917843e-02 
       8.110382507288e-01       1.895699743282e-02 
       8.782180910137e-01       1.583403929754e-02 
       9.618344028334e-01       1.286703243051e-02 
       1.065122976209e+00       1.017338916623e-02 
       1.188861021489e+00       7.879032181591e-03 
       1.331974042180e+00       6.033432926154e-03 
       1.494067066756e+00       4.595907841737e-03 
       1.676302948959e+00       3.490271877092e-03 
       1.880835468917e+00       2.644265178685e-03 
       2.110331571097e+00       1.998856589294e-03 
       2.367830942715e+00       1.507763036624e-03 
       2.656750013695e+00       1.134994964477e-03 
       2.980922543821e+00       8.526858446427e-04 
       3.344650105012e+00       6.393627771580e-04 
       3.752759141007e+00       4.785109149169e-04 
       4.210665010760e+00       3.574590555586e-04 
       4.724443846956e+00       2.665402683538e-04 
       5.300913182598e+00       1.983786098827e-04 
       5.947722415527e+00       1.473702952018e-04 
       6.673454311287e+00       1.092663860127e-04 
       7.487738891205e+00       8.085050212468e-05 
       8.401381216927e+00       5.969599416387e-05 
       9.426504767018e+00       4.397414283717e-05 
       1.057671230816e+01       3.231034251470e-05 
       1.186726639560e+01       2.367253121346e-05 
       1.331529189798e+01       1.728746352539e-05 
       1.494000323395e+01       1.257730339115e-05 
       1.676295933582e+01       9.110459205774e-06 
       1.880834972351e+01       6.565032485668e-06 
       2.110331548474e+01       4.701556616876e-06 
       2.367830942083e+01       3.342021191353e-06 
       2.656750013685e+01       2.354206026141e-06 
       2.980922543821e+01       1.640142077069e-06 
       3.344650105012e+01       1.127277933080e-06 
       3.752759141006e+01       7.618798856945e-07 
       4.210665010760e+01       5.042736342473e-07 
       4.724443846956e+01       3.250986823589e-07 
       5.300913182598e+01       2.026961925436e-07 
       5.947722415527e+01       1.210189140776e-07 
       6.673454311287e+01       6.821925379322e-08 
       7.487738891205e+01       3.553534187250e-08 
       8.401381216927e+01       1.650364059563e-08 
       9.426504767018e+01       6.382392632280e-09 
       1.057671230816e+02       1.740762978801e-09 
