# Matter power spectrum P(k) at redshift z=99
# for k=1.04206e-05 to 105.767 h/Mpc,
# number of wavenumbers equal to 192
#    1:k (h/Mpc)              2:P (Mpc/h)^3        
       1.042057218184e-05       7.036260929412e-03 
       1.169207429241e-05       7.864016108967e-03 
       1.311872312515e-05       8.789148142149e-03 
       1.471944944330e-05       9.823114227113e-03 
       1.651549391254e-05       1.097871819660e-02 
       1.853068895179e-05       1.227026615645e-02 
       2.079177497483e-05       1.371375238049e-02 
       2.332875521946e-05       1.532704927063e-02 
       2.617529387212e-05       1.713013403726e-02 
       2.936916277130e-05       1.914533011293e-02 
       3.295274261680e-05       2.139759139788e-02 
       3.697358533591e-05       2.391480135901e-02 
       4.148504506860e-05       2.672812600751e-02 
       4.654698614451e-05       2.987239549779e-02 
       5.222657744628e-05       3.338653470847e-02 
       5.859918369976e-05       3.731404483963e-02 
       6.574936551816e-05       4.170354103629e-02 
       7.377200147002e-05       4.660934851919e-02 
       8.277354706016e-05       5.209217843662e-02 
       9.287344732953e-05       5.821986951857e-02 
       1.042057218184e-04       6.506822426535e-02 
       1.169207429241e-04       7.272193811951e-02 
       1.311872312515e-04       8.127563721461e-02 
       1.471944944330e-04       9.083503009156e-02 
       1.651549391254e-04       1.015181935261e-01 
       1.853068895179e-04       1.134570015370e-01 
       2.079177497483e-04       1.267987049437e-01 
       2.332875521946e-04       1.417076917967e-01 
       2.617529387212e-04       1.583674216515e-01 
       2.936916277130e-04       1.769825661221e-01 
       3.295274261680e-04       1.977813491794e-01 
       3.697358533591e-04       2.210181080939e-01 
       4.148504506860e-04       2.469760655676e-01 
       4.654698614451e-04       2.759703106421e-01 
       5.222657744628e-04       3.083509591931e-01 
       5.859918369976e-04       3.445064540356e-01 
       6.574936551816e-04       3.848669203741e-01 
       7.377200147002e-04       4.299074567460e-01 
       8.277354706016e-04       4.801511870535e-01 
       9.287344732953e-04       5.361717747340e-01 
       1.042057218184e-03       5.985950254489e-01 
       1.169207429241e-03       6.680990083944e-01 
       1.311872312515e-03       7.454119173502e-01 
       1.471944944330e-03       8.313216520507e-01 
       1.651549391254e-03       9.266333534580e-01 
       1.853068895179e-03       1.032173776674e+00 
       2.079177497483e-03       1.148765179430e+00 
       2.332875521946e-03       1.277186728559e+00 
       2.617529387212e-03       1.418123334331e+00 
       2.936916277130e-03       1.572096675120e+00 
       3.295274261680e-03       1.739376799166e+00 
       3.697358533591e-03       1.919873493215e+00 
       4.148504506860e-03       2.113010517691e+00 
       4.654698614451e-03       2.317593840196e+00 
       5.222657744628e-03       2.531687171634e+00 
       5.859918369976e-03       2.752523303420e+00 
       6.574936551816e-03       2.976481704062e+00 
       7.377200147002e-03       3.199134863982e+00 
       8.277354706016e-03       3.415370827516e+00 
       9.287344732953e-03       3.619513639775e+00 
       1.042057218184e-02       3.805351171868e+00 
       1.169207429241e-02       3.965988848166e+00 
       1.311872312515e-02       4.093620159285e+00 
       1.471944944329e-02       4.179528033354e+00 
       1.651549391202e-02       4.214691681476e+00 
       1.853068892068e-02       4.190950991443e+00 
       2.079177387373e-02       4.102321796790e+00 
       2.332873074132e-02       3.946354073794e+00 
       2.617493570260e-02       3.726104305007e+00 
       2.936555805635e-02       3.452313273658e+00 
       3.292682347815e-02       3.144899136839e+00 
       3.683709330358e-02       2.833929913350e+00 
       4.095543211618e-02       2.555438923330e+00 
       4.502448509192e-02       2.335490019135e+00 
       4.884708991234e-02       2.175213703899e+00 
       5.239007941194e-02       2.059481824723e+00 
       5.570651898045e-02       1.972058442655e+00 
       5.886102379382e-02       1.900944233522e+00 
       6.190687314325e-02       1.837905857399e+00 
       6.488442645362e-02       1.777318468019e+00 
       6.782403073702e-02       1.715426089332e+00 
       7.074891559932e-02       1.649918504510e+00 
       7.367733710877e-02       1.579669968457e+00 
       7.662405936252e-02       1.504591900391e+00 
       7.960136626090e-02       1.425475633014e+00 
       8.261975780275e-02       1.343822363547e+00 
       8.568843639560e-02       1.261645277039e+00 
       8.881565226857e-02       1.181218602197e+00 
       9.200895293480e-02       1.104830113180e+00 
       9.527536616595e-02       1.034526530713e+00 
       9.862153605116e-02       9.718966926398e-01 
       1.020538253516e-01       9.179002378992e-01 
       1.055783932188e-01       8.727585104212e-01 
       1.092012546125e-01       8.359145564436e-01 
       1.129283259241e-01       8.060450130312e-01 
       1.167654600782e-01       7.811498095530e-01 
       1.207184735361e-01       7.587272752778e-01 
       1.247931670502e-01       7.360805304908e-01 
       1.289953416147e-01       7.107456665564e-01 
       1.333308107853e-01       6.809731848508e-01 
       1.378054103573e-01       6.461608766875e-01 
       1.424250062616e-01       6.070575615187e-01 
       1.471955014621e-01       5.656352524595e-01 
       1.521228425855e-01       5.246258813362e-01 
       1.572130269831e-01       4.868447776998e-01 
       1.624721109113e-01       4.544878624451e-01 
       1.679062195059e-01       4.285680254853e-01 
       1.735215592257e-01       4.086780794399e-01 
       1.793244334403e-01       3.930678453954e-01 
       1.853212618387e-01       3.792173533101e-01 
       1.915186043438e-01       3.643249740673e-01 
       1.979231902264e-01       3.463141299487e-01 
       2.045419531355e-01       3.249121802655e-01 
       2.113820727907e-01       3.016978450247e-01 
       2.184510241392e-01       2.791609094423e-01 
       2.257566348590e-01       2.594711424758e-01 
       2.333071522061e-01       2.437235284120e-01 
       2.411113203738e-01       2.315409012689e-01 
       2.491784697558e-01       2.211539127527e-01 
       2.575186198216e-01       2.104107707335e-01 
       2.661425977175e-01       1.980819038777e-01 
       2.750621752533e-01       1.844294719654e-01 
       2.842902276420e-01       1.709555303073e-01 
       2.938409182814e-01       1.592866007524e-01 
       3.037299150763e-01       1.498310247205e-01 
       3.139746453704e-01       1.417221778327e-01 
       3.245945986384e-01       1.336573499400e-01 
       3.356116888317e-01       1.249293050030e-01 
       3.470506919522e-01       1.160519229717e-01 
       3.589397793903e-01       1.079525528080e-01 
       3.713111743434e-01       1.010338232773e-01 
       3.842019680016e-01       9.474685970018e-02 
       3.976551452949e-01       8.843905946698e-02 
       4.117208885985e-01       8.208536784612e-02 
       4.264582545434e-01       7.615709263504e-02 
       4.419373581600e-01       7.081936740679e-02 
       4.582422565474e-01       6.579908128273e-02 
       4.754748117013e-01       6.083661801778e-02 
       4.937599462750e-01       5.609339839248e-02 
       5.132529154734e-01       5.171982078017e-02 
       5.341495508456e-01       4.751612820488e-02 
       5.567009681437e-01       4.344587386780e-02 
       5.812351068128e-01       3.959691993012e-02 
       6.081889018991e-01       3.588633959467e-02 
       6.381571986869e-01       3.230069397219e-02 
       6.719680157595e-01       2.883966795972e-02 
       7.107980430614e-01       2.546870315269e-02 
       7.563432000599e-01       2.217955927440e-02 
       8.110382507288e-01       1.896445798193e-02 
       8.782180910137e-01       1.584119783671e-02 
       9.618344028334e-01       1.287383868902e-02 
       1.065122976209e+00       1.017980615710e-02 
       1.188861021489e+00       7.885039592930e-03 
       1.331974042180e+00       6.039026400050e-03 
       1.494067066756e+00       4.601118719470e-03 
       1.676302948959e+00       3.495106921132e-03 
       1.880835468917e+00       2.648740625902e-03 
       2.110331571097e+00       2.002994799700e-03 
       2.367830942715e+00       1.511579160794e-03 
       2.656750013695e+00       1.138514420652e-03 
       2.980922543821e+00       8.559297536335e-04 
       3.344650105012e+00       6.423501591792e-04 
       3.752759141007e+00       4.812561053075e-04 
       4.210665010760e+00       3.599787714108e-04 
       4.724443846956e+00       2.688559975541e-04 
       5.300913182598e+00       2.005042559180e-04 
       5.947722415527e+00       1.493194223640e-04 
       6.673454311287e+00       1.110513059976e-04 
       7.487738891205e+00       8.248481774127e-05 
       8.401381216927e+00       6.119145995701e-05 
       9.426504767018e+00       4.534124537256e-05 
       1.057671230816e+01       3.355836554753e-05 
       1.186726639560e+01       2.481068340962e-05 
       1.331529189798e+01       1.832382752119e-05 
       1.494000323395e+01       1.351888802258e-05 
       1.676295933582e+01       9.964430680290e-06 
       1.880834972351e+01       7.337358880575e-06 
       2.110331548474e+01       5.397884730681e-06 
       2.367830942083e+01       3.967417738620e-06 
       2.656750013685e+01       2.913453995763e-06 
       2.980922543821e+01       2.137525629901e-06 
       3.344650105012e+01       1.566855173348e-06 
       3.752759141006e+01       1.147491952870e-06 
       4.210665010760e+01       8.395828467665e-07 
       4.724443846956e+01       6.136891416600e-07 
       5.300913182598e+01       4.480925268977e-07 
       5.947722415527e+01       3.268034211795e-07 
       6.673454311287e+01       2.380297150722e-07 
       7.487738891205e+01       1.731086657590e-07 
       8.401381216927e+01       1.256684998957e-07 
       9.426504767018e+01       9.102883133803e-08 
       1.057671230816e+02       6.575791642680e-08 
