# Matter power spectrum P(k) at redshift z=99
# for k=1.04206e-05 to 105.767 h/Mpc,
# number of wavenumbers equal to 192
#    1:k (h/Mpc)              2:P (Mpc/h)^3        
       1.042057218184e-05       7.036260929723e-03 
       1.169207429241e-05       7.864016109314e-03 
       1.311872312515e-05       8.789148142537e-03 
       1.471944944330e-05       9.823114227547e-03 
       1.651549391254e-05       1.097871819708e-02 
       1.853068895179e-05       1.227026615700e-02 
       2.079177497483e-05       1.371375238109e-02 
       2.332875521946e-05       1.532704927130e-02 
       2.617529387212e-05       1.713013403802e-02 
       2.936916277130e-05       1.914533011377e-02 
       3.295274261680e-05       2.139759139882e-02 
       3.697358533591e-05       2.391480136007e-02 
       4.148504506860e-05       2.672812600869e-02 
       4.654698614451e-05       2.987239549911e-02 
       5.222657744628e-05       3.338653470994e-02 
       5.859918369976e-05       3.731404484128e-02 
       6.574936551816e-05       4.170354103813e-02 
       7.377200147002e-05       4.660934852125e-02 
       8.277354706016e-05       5.209217843892e-02 
       9.287344732953e-05       5.821986952114e-02 
       1.042057218184e-04       6.506822426821e-02 
       1.169207429241e-04       7.272193812270e-02 
       1.311872312515e-04       8.127563721817e-02 
       1.471944944330e-04       9.083503009553e-02 
       1.651549391254e-04       1.015181935305e-01 
       1.853068895179e-04       1.134570015420e-01 
       2.079177497483e-04       1.267987049492e-01 
       2.332875521946e-04       1.417076918029e-01 
       2.617529387212e-04       1.583674216583e-01 
       2.936916277130e-04       1.769825661296e-01 
       3.295274261680e-04       1.977813491878e-01 
       3.697358533591e-04       2.210181081031e-01 
       4.148504506860e-04       2.469760655778e-01 
       4.654698614451e-04       2.759703106532e-01 
       5.222657744628e-04       3.083509592051e-01 
       5.859918369976e-04       3.445064540486e-01 
       6.574936551816e-04       3.848669203879e-01 
       7.377200147002e-04       4.299074567606e-01 
       8.277354706016e-04       4.801511870685e-01 
       9.287344732953e-04       5.361717747490e-01 
       1.042057218184e-03       5.985950254631e-01 
       1.169207429241e-03       6.680990084067e-01 
       1.311872312515e-03       7.454119173590e-01 
       1.471944944330e-03       8.313216520517e-01 
       1.651549391254e-03       9.266333534467e-01 
       1.853068895179e-03       1.032173776636e+00 
       2.079177497483e-03       1.148765179375e+00 
       2.332875521946e-03       1.277186728453e+00 
       2.617529387212e-03       1.418123334161e+00 
       2.936916277130e-03       1.572096674854e+00 
       3.295274261680e-03       1.739376798763e+00 
       3.697358533591e-03       1.919873492618e+00 
       4.148504506860e-03       2.113010516817e+00 
       4.654698614451e-03       2.317593856662e+00 
       5.222657744628e-03       2.531687170037e+00 
       5.859918369976e-03       2.752523278980e+00 
       6.574936551816e-03       2.976481700426e+00 
       7.377200147002e-03       3.199134858913e+00 
       8.277354706016e-03       3.415370820416e+00 
       9.287344732953e-03       3.619513184898e+00 
       1.042057218184e-02       3.805351016929e+00 
       1.169207429241e-02       3.965988830868e+00 
       1.311872312515e-02       4.093620134832e+00 
       1.471944944329e-02       4.179528740731e+00 
       1.651549391202e-02       4.214691638086e+00 
       1.853068892068e-02       4.190950336423e+00 
       2.079177387373e-02       4.102324887609e+00 
       2.332873074132e-02       3.946354523599e+00 
       2.617493570260e-02       3.726112482218e+00 
       2.936555805635e-02       3.452313124765e+00 
       3.292682347815e-02       3.144898949023e+00 
       3.683709330358e-02       2.833925230061e+00 
       4.095543211618e-02       2.555441863900e+00 
       4.502448509192e-02       2.335489712554e+00 
       4.884708991234e-02       2.175212622935e+00 
       5.239007941194e-02       2.059481407798e+00 
       5.570651898045e-02       1.972052697430e+00 
       5.886102379382e-02       1.900944055919e+00 
       6.190687314325e-02       1.837906652126e+00 
       6.488442645362e-02       1.777317243281e+00 
       6.782403073702e-02       1.715426043428e+00 
       7.074891559932e-02       1.649917214858e+00 
       7.367733710877e-02       1.579668602591e+00 
       7.662405936252e-02       1.504590347385e+00 
       7.960136626090e-02       1.425474195890e+00 
       8.261975780275e-02       1.343821723777e+00 
       8.568843639560e-02       1.261643800555e+00 
       8.881565226857e-02       1.181218470207e+00 
       9.200895293480e-02       1.104829604206e+00 
       9.527536616595e-02       1.034525645248e+00 
       9.862153605116e-02       9.718957663044e-01 
       1.020538253516e-01       9.178986187019e-01 
       1.055783932188e-01       8.727573447606e-01 
       1.092012546125e-01       8.359156229167e-01 
       1.129283259241e-01       8.060455909292e-01 
       1.167654600782e-01       7.811487077169e-01 
       1.207184735361e-01       7.587246899486e-01 
       1.247931670502e-01       7.360802435977e-01 
       1.289953416147e-01       7.107450596206e-01 
       1.333308107853e-01       6.809729707496e-01 
       1.378054103573e-01       6.461612887525e-01 
       1.424250062616e-01       6.070577875770e-01 
       1.471955014621e-01       5.656347870571e-01 
       1.521228425855e-01       5.246228433092e-01 
       1.572130269831e-01       4.868433831307e-01 
       1.624721109113e-01       4.544863203160e-01 
       1.679062195059e-01       4.285661602732e-01 
       1.735215592257e-01       4.086764381719e-01 
       1.793244334403e-01       3.930658713495e-01 
       1.853212618387e-01       3.792185050810e-01 
       1.915186043438e-01       3.643277652166e-01 
       1.979231902264e-01       3.463172799152e-01 
       2.045419531355e-01       3.249131339986e-01 
       2.113820727907e-01       3.016957905479e-01 
       2.184510241392e-01       2.791587052608e-01 
       2.257566348590e-01       2.594694957507e-01 
       2.333071522061e-01       2.437215138443e-01 
       2.411113203738e-01       2.315387155116e-01 
       2.491784697558e-01       2.211515373113e-01 
       2.575186198216e-01       2.104100976510e-01 
       2.661425977175e-01       1.980809172457e-01 
       2.750621752533e-01       1.844264373875e-01 
       2.842902276420e-01       1.709532050656e-01 
       2.938409182814e-01       1.592835981225e-01 
       3.037299150763e-01       1.498282255335e-01 
       3.139746453704e-01       1.417196393911e-01 
       3.245945986384e-01       1.336543821540e-01 
       3.356116888317e-01       1.249262695418e-01 
       3.470506919522e-01       1.160493819480e-01 
       3.589397793903e-01       1.079499088932e-01 
       3.713111743434e-01       1.010310316837e-01 
       3.842019680016e-01       9.474405204081e-02 
       3.976551452949e-01       8.843613427464e-02 
       4.117208885985e-01       8.208250109512e-02 
       4.264582545434e-01       7.615425662701e-02 
       4.419373581600e-01       7.081643954845e-02 
       4.582422565474e-01       6.579612963124e-02 
       4.754748117013e-01       6.083363893182e-02 
       4.937599462750e-01       5.609039044026e-02 
       5.132529154734e-01       5.171678180647e-02 
       5.341495508456e-01       4.751304071817e-02 
       5.567009681437e-01       4.344277753425e-02 
       5.812351068128e-01       3.959377101920e-02 
       6.081889018991e-01       3.588314835432e-02 
       6.381571986869e-01       3.229745674802e-02 
       6.719680157595e-01       2.883644368446e-02 
       7.107980430614e-01       2.546529612559e-02 
       7.563432000599e-01       2.217622552898e-02 
       8.110382507288e-01       1.896099036343e-02 
       8.782180910137e-01       1.583776802155e-02 
       9.618344028334e-01       1.287034004536e-02 
       1.065122976209e+00       1.017625175764e-02 
       1.188861021489e+00       7.881377164472e-03 
       1.331974042180e+00       6.035365192354e-03 
       1.494067066756e+00       4.597463544362e-03 
       1.676302948959e+00       3.491428929039e-03 
       1.880835468917e+00       2.645068876775e-03 
       2.110331571097e+00       1.999332799871e-03 
       2.367830942715e+00       1.507939591652e-03 
       2.656750013695e+00       1.134901865944e-03 
       2.980922543821e+00       8.523456446124e-04 
       3.344650105012e+00       6.388105525972e-04 
       3.752759141007e+00       4.777566980958e-04 
       4.210665010760e+00       3.565316907362e-04 
       4.724443846956e+00       2.654583798927e-04 
       5.300913182598e+00       1.971620106949e-04 
       5.947722415527e+00       1.460354665980e-04 
       6.673454311287e+00       1.078280291197e-04 
       7.487738891205e+00       7.932433080638e-05 
       8.401381216927e+00       5.809537724353e-05 
       9.426504767018e+00       4.231140515762e-05 
       1.057671230816e+01       3.059811076939e-05 
       1.186726639560e+01       2.192473246990e-05 
       1.331529189798e+01       1.551956055840e-05 
       1.494000323395e+01       1.080651618414e-05 
       1.676295933582e+01       7.359902154240e-06 
       1.880834972351e+01       4.861975324744e-06 
       2.110331548474e+01       3.079097166215e-06 
       2.367830942083e+01       1.832451884203e-06 
       2.656750013685e+01       9.951917649370e-07 
       2.980922543821e+01       4.732028101610e-07 
       3.344650105012e+01       1.794165970587e-07 
       3.752759141006e+01       4.475016698047e-08 
       4.210665010760e+01       3.048739302113e-09 
       4.724443846956e+01       1.620861211636e-09 
       5.300913182598e+01       5.595502601760e-09 
       5.947722415527e+01       3.415679360284e-09 
       6.673454311287e+01       1.896448045760e-10 
       7.487738891205e+01       9.059265184815e-10 
       8.401381216927e+01       1.910881461945e-09 
       9.426504767018e+01       6.346884177793e-10 
       1.057671230816e+02       8.320657132204e-13 
