# Matter power spectrum P(k) at redshift z=99
# for k=1.04206e-05 to 105.767 h/Mpc,
# number of wavenumbers equal to 192
#    1:k (h/Mpc)              2:P (Mpc/h)^3        
       1.042057218184e-05       7.036260929412e-03 
       1.169207429241e-05       7.864016108967e-03 
       1.311872312515e-05       8.789148142150e-03 
       1.471944944330e-05       9.823114227114e-03 
       1.651549391254e-05       1.097871819660e-02 
       1.853068895179e-05       1.227026615645e-02 
       2.079177497483e-05       1.371375238049e-02 
       2.332875521946e-05       1.532704927063e-02 
       2.617529387212e-05       1.713013403727e-02 
       2.936916277130e-05       1.914533011293e-02 
       3.295274261680e-05       2.139759139788e-02 
       3.697358533591e-05       2.391480135901e-02 
       4.148504506860e-05       2.672812600751e-02 
       4.654698614451e-05       2.987239549779e-02 
       5.222657744628e-05       3.338653470847e-02 
       5.859918369976e-05       3.731404483963e-02 
       6.574936551816e-05       4.170354103629e-02 
       7.377200147002e-05       4.660934851920e-02 
       8.277354706016e-05       5.209217843663e-02 
       9.287344732953e-05       5.821986951858e-02 
       1.042057218184e-04       6.506822426535e-02 
       1.169207429241e-04       7.272193811952e-02 
       1.311872312515e-04       8.127563721461e-02 
       1.471944944330e-04       9.083503009156e-02 
       1.651549391254e-04       1.015181935261e-01 
       1.853068895179e-04       1.134570015370e-01 
       2.079177497483e-04       1.267987049437e-01 
       2.332875521946e-04       1.417076917967e-01 
       2.617529387212e-04       1.583674216515e-01 
       2.936916277130e-04       1.769825661221e-01 
       3.295274261680e-04       1.977813491795e-01 
       3.697358533591e-04       2.210181080939e-01 
       4.148504506860e-04       2.469760655677e-01 
       4.654698614451e-04       2.759703106422e-01 
       5.222657744628e-04       3.083509591931e-01 
       5.859918369976e-04       3.445064540356e-01 
       6.574936551816e-04       3.848669203741e-01 
       7.377200147002e-04       4.299074567460e-01 
       8.277354706016e-04       4.801511870535e-01 
       9.287344732953e-04       5.361717747340e-01 
       1.042057218184e-03       5.985950254488e-01 
       1.169207429241e-03       6.680990083945e-01 
       1.311872312515e-03       7.454119173502e-01 
       1.471944944330e-03       8.313216523738e-01 
       1.651549391254e-03       9.266333534580e-01 
       1.853068895179e-03       1.032173776674e+00 
       2.079177497483e-03       1.148765179430e+00 
       2.332875521946e-03       1.277186728559e+00 
       2.617529387212e-03       1.418123334331e+00 
       2.936916277130e-03       1.572096675120e+00 
       3.295274261680e-03       1.739376799201e+00 
       3.697358533591e-03       1.919873493215e+00 
       4.148504506860e-03       2.113010517625e+00 
       4.654698614451e-03       2.317593840195e+00 
       5.222657744628e-03       2.531687171632e+00 
       5.859918369976e-03       2.752523303417e+00 
       6.574936551816e-03       2.976481704058e+00 
       7.377200147002e-03       3.199134863976e+00 
       8.277354706016e-03       3.415370827509e+00 
       9.287344732953e-03       3.619513194654e+00 
       1.042057218184e-02       3.805351030233e+00 
       1.169207429241e-02       3.965988848146e+00 
       1.311872312515e-02       4.093619330509e+00 
       1.471944944329e-02       4.179528773419e+00 
       1.651549391202e-02       4.214691681426e+00 
       1.853068892068e-02       4.190950991388e+00 
       2.079177387373e-02       4.102324961346e+00 
       2.332873074132e-02       3.946354073687e+00 
       2.617493570260e-02       3.726112601604e+00 
       2.936555805635e-02       3.452317761458e+00 
       3.292682347815e-02       3.144896427281e+00 
       3.683709330358e-02       2.833929913078e+00 
       4.095543211618e-02       2.555440804505e+00 
       4.502448509192e-02       2.335490018401e+00 
       4.884708991234e-02       2.175213703474e+00 
       5.239007941194e-02       2.059481821279e+00 
       5.570651898045e-02       1.972058440175e+00 
       5.886102379382e-02       1.900944533360e+00 
       6.190687314325e-02       1.837907180469e+00 
       6.488442645362e-02       1.777317696584e+00 
       6.782403073702e-02       1.715425461533e+00 
       7.074891559932e-02       1.649916815977e+00 
       7.367733710877e-02       1.579671331068e+00 
       7.662405936252e-02       1.504591904484e+00 
       7.960136626090e-02       1.425475637666e+00 
       8.261975780275e-02       1.343822481185e+00 
       8.568843639560e-02       1.261644599908e+00 
       8.881565226857e-02       1.181218835850e+00 
       9.200895293480e-02       1.104830471829e+00 
       9.527536616595e-02       1.034526417765e+00 
       9.862153605116e-02       9.718966915990e-01 
       1.020538253516e-01       9.178985396794e-01 
       1.055783932188e-01       8.727583947019e-01 
       1.092012546125e-01       8.359155300220e-01 
       1.129283259241e-01       8.060467199464e-01 
       1.167654600782e-01       7.811496682026e-01 
       1.207184735361e-01       7.587258701465e-01 
       1.247931670502e-01       7.360805992645e-01 
       1.289953416147e-01       7.107456617709e-01 
       1.333308107853e-01       6.809729973470e-01 
       1.378054103573e-01       6.461606971018e-01 
       1.424250062616e-01       6.070573359689e-01 
       1.471955014621e-01       5.656350930467e-01 
       1.521228425855e-01       5.246229394946e-01 
       1.572130269831e-01       4.868447727452e-01 
       1.624721109113e-01       4.544878782143e-01 
       1.679062195059e-01       4.285681000499e-01 
       1.735215592257e-01       4.086777656001e-01 
       1.793244334403e-01       3.930675482796e-01 
       1.853212618387e-01       3.792175786555e-01 
       1.915186043438e-01       3.643250355926e-01 
       1.979231902264e-01       3.463139835199e-01 
       2.045419531355e-01       3.249123942626e-01 
       2.113820727907e-01       3.016985428313e-01 
       2.184510241392e-01       2.791606602811e-01 
       2.257566348590e-01       2.594714706967e-01 
       2.333071522061e-01       2.437233458452e-01 
       2.411113203738e-01       2.315408581599e-01 
       2.491784697558e-01       2.211536563401e-01 
       2.575186198216e-01       2.104115986966e-01 
       2.661425977175e-01       1.980819336887e-01 
       2.750621752533e-01       1.844297008691e-01 
       2.842902276420e-01       1.709555240234e-01 
       2.938409182814e-01       1.592859404523e-01 
       3.037299150763e-01       1.498308606948e-01 
       3.139746453704e-01       1.417221960990e-01 
       3.245945986384e-01       1.336570861069e-01 
       3.356116888317e-01       1.249290692023e-01 
       3.470506919522e-01       1.160519468866e-01 
       3.589397793903e-01       1.079525390830e-01 
       3.713111743434e-01       1.010338123628e-01 
       3.842019680016e-01       9.474680985591e-02 
       3.976551452949e-01       8.843897094877e-02 
       4.117208885985e-01       8.208532966856e-02 
       4.264582545434e-01       7.615709458895e-02 
       4.419373581600e-01       7.081930980783e-02 
       4.582422565474e-01       6.579903973527e-02 
       4.754748117013e-01       6.083657395178e-02 
       4.937599462750e-01       5.609337891071e-02 
       5.132529154734e-01       5.171981031462e-02 
       5.341495508456e-01       4.751611642582e-02 
       5.567009681437e-01       4.344587678206e-02 
       5.812351068128e-01       3.959691275470e-02 
       6.081889018991e-01       3.588633656072e-02 
       6.381571986869e-01       3.230068445796e-02 
       6.719680157595e-01       2.883965866579e-02 
       7.107980430614e-01       2.546869942898e-02 
       7.563432000599e-01       2.217955596089e-02 
       8.110382507288e-01       1.896445558616e-02 
       8.782180910137e-01       1.584119445743e-02 
       9.618344028334e-01       1.287383188118e-02 
       1.065122976209e+00       1.017980256662e-02 
       1.188861021489e+00       7.885035183020e-03 
       1.331974042180e+00       6.039022272319e-03 
       1.494067066756e+00       4.601114581108e-03 
       1.676302948959e+00       3.495103046255e-03 
       1.880835468917e+00       2.648736493159e-03 
       2.110331571097e+00       2.002990135797e-03 
       2.367830942715e+00       1.511575118258e-03 
       2.656750013695e+00       1.138509469471e-03 
       2.980922543821e+00       8.559260093530e-04 
       3.344650105012e+00       6.423466256655e-04 
       3.752759141007e+00       4.812522344680e-04 
       4.210665010760e+00       3.599743139818e-04 
       4.724443846956e+00       2.688522727575e-04 
       5.300913182598e+00       2.005005628044e-04 
       5.947722415527e+00       1.493158700127e-04 
       6.673454311287e+00       1.110476186232e-04 
       7.487738891205e+00       8.248127241836e-05 
       8.401381216927e+00       6.118761258027e-05 
       9.426504767018e+00       4.533808901648e-05 
       1.057671230816e+01       3.355524794356e-05 
       1.186726639560e+01       2.480733935916e-05 
       1.331529189798e+01       1.832046415266e-05 
       1.494000323395e+01       1.351592084124e-05 
       1.676295933582e+01       9.961353554041e-06 
       1.880834972351e+01       7.334355016546e-06 
       2.110331548474e+01       5.394935646501e-06 
       2.367830942083e+01       3.964517785973e-06 
       2.656750013685e+01       2.910567518993e-06 
       2.980922543821e+01       2.134678067914e-06 
       3.344650105012e+01       1.564019271682e-06 
       3.752759141006e+01       1.144666891161e-06 
       4.210665010760e+01       8.367545964346e-07 
       4.724443846956e+01       6.108563471864e-07 
       5.300913182598e+01       4.452513705371e-07 
       5.947722415527e+01       3.239448671513e-07 
       6.673454311287e+01       2.351486474669e-07 
       7.487738891205e+01       1.702035667979e-07 
       8.401381216927e+01       1.227420710050e-07 
       9.426504767018e+01       8.808476688234e-08 
       1.057671230816e+02       6.280747014226e-08 
