# Matter power spectrum P(k) at redshift z=99
# for k=1.04206e-05 to 105.767 h/Mpc,
# number of wavenumbers equal to 192
#    1:k (h/Mpc)              2:P (Mpc/h)^3        
       1.042057218184e-05       7.036260929418e-03 
       1.169207429241e-05       7.864016108974e-03 
       1.311872312515e-05       8.789148142157e-03 
       1.471944944330e-05       9.823114227122e-03 
       1.651549391254e-05       1.097871819661e-02 
       1.853068895179e-05       1.227026615646e-02 
       2.079177497483e-05       1.371375238050e-02 
       2.332875521946e-05       1.532704927064e-02 
       2.617529387212e-05       1.713013403728e-02 
       2.936916277130e-05       1.914533011294e-02 
       3.295274261680e-05       2.139759139790e-02 
       3.697358533591e-05       2.391480135903e-02 
       4.148504506860e-05       2.672812600753e-02 
       4.654698614451e-05       2.987239549782e-02 
       5.222657744628e-05       3.338653470850e-02 
       5.859918369976e-05       3.731404483966e-02 
       6.574936551816e-05       4.170354103632e-02 
       7.377200147002e-05       4.660934851924e-02 
       8.277354706016e-05       5.209217843667e-02 
       9.287344732953e-05       5.821986951863e-02 
       1.042057218184e-04       6.506822426540e-02 
       1.169207429241e-04       7.272193811958e-02 
       1.311872312515e-04       8.127563721468e-02 
       1.471944944330e-04       9.083503009164e-02 
       1.651549391254e-04       1.015181935261e-01 
       1.853068895179e-04       1.134570015371e-01 
       2.079177497483e-04       1.267987049438e-01 
       2.332875521946e-04       1.417076917969e-01 
       2.617529387212e-04       1.583674216517e-01 
       2.936916277130e-04       1.769825661223e-01 
       3.295274261680e-04       1.977813491796e-01 
       3.697358533591e-04       2.210181080941e-01 
       4.148504506860e-04       2.469760655678e-01 
       4.654698614451e-04       2.759703106424e-01 
       5.222657744628e-04       3.083509591933e-01 
       5.859918369976e-04       3.445064540359e-01 
       6.574936551816e-04       3.848669203743e-01 
       7.377200147002e-04       4.299074567463e-01 
       8.277354706016e-04       4.801511870538e-01 
       9.287344732953e-04       5.361717747343e-01 
       1.042057218184e-03       5.985950254492e-01 
       1.169207429241e-03       6.680990083947e-01 
       1.311872312515e-03       7.454119173502e-01 
       1.471944944330e-03       8.313216520508e-01 
       1.651549391254e-03       9.266333534578e-01 
       1.853068895179e-03       1.032173776673e+00 
       2.079177497483e-03       1.148765179429e+00 
       2.332875521946e-03       1.277186728461e+00 
       2.617529387212e-03       1.418123334328e+00 
       2.936916277130e-03       1.572096675114e+00 
       3.295274261680e-03       1.739376799193e+00 
       3.697358533591e-03       1.919873493203e+00 
       4.148504506860e-03       2.113010517671e+00 
       4.654698614451e-03       2.317593857802e+00 
       5.222657744628e-03       2.531687171811e+00 
       5.859918369976e-03       2.752523303421e+00 
       6.574936551816e-03       2.976481703976e+00 
       7.377200147002e-03       3.199134863880e+00 
       8.277354706016e-03       3.415370481415e+00 
       9.287344732953e-03       3.619513639581e+00 
       1.042057218184e-02       3.805351171601e+00 
       1.169207429241e-02       3.965988848623e+00 
       1.311872312515e-02       4.093620158796e+00 
       1.471944944329e-02       4.179528438498e+00 
       1.651549391202e-02       4.214691680608e+00 
       1.853068892068e-02       4.190950990310e+00 
       2.079177387373e-02       4.102324959984e+00 
       2.332873074132e-02       3.946354616329e+00 
       2.617493570260e-02       3.726112599347e+00 
       2.936555805635e-02       3.452313270663e+00 
       3.292682347815e-02       3.144902222566e+00 
       3.683709330358e-02       2.833928684247e+00 
       4.095543211618e-02       2.555441181580e+00 
       4.502448509192e-02       2.335489566718e+00 
       4.884708991234e-02       2.175213791831e+00 
       5.239007941194e-02       2.059481801954e+00 
       5.570651898045e-02       1.972053543217e+00 
       5.886102379382e-02       1.900944523831e+00 
       6.190687314325e-02       1.837905868691e+00 
       6.488442645362e-02       1.777317664100e+00 
       6.782403073702e-02       1.715425368126e+00 
       7.074891559932e-02       1.649917195764e+00 
       7.367733710877e-02       1.579669732723e+00 
       7.662405936252e-02       1.504591158501e+00 
       7.960136626090e-02       1.425474773344e+00 
       8.261975780275e-02       1.343821336358e+00 
       8.568843639560e-02       1.261644596532e+00 
       8.881565226857e-02       1.181218852939e+00 
       9.200895293480e-02       1.104830588989e+00 
       9.527536616595e-02       1.034526400455e+00 
       9.862153605116e-02       9.718966741125e-01 
       1.020538253516e-01       9.178995581928e-01 
       1.055783932188e-01       8.727583191756e-01 
       1.092012546125e-01       8.359144695312e-01 
       1.129283259241e-01       8.060450842675e-01 
       1.167654600782e-01       7.811498127268e-01 
       1.207184735361e-01       7.587252193636e-01 
       1.247931670502e-01       7.360807254507e-01 
       1.289953416147e-01       7.107461262263e-01 
       1.333308107853e-01       6.809735212977e-01 
       1.378054103573e-01       6.461608989558e-01 
       1.424250062616e-01       6.070583458220e-01 
       1.471955014621e-01       5.656366463098e-01 
       1.521228425855e-01       5.246242851018e-01 
       1.572130269831e-01       4.868447430097e-01 
       1.624721109113e-01       4.544877715968e-01 
       1.679062195059e-01       4.285677010505e-01 
       1.735215592257e-01       4.086777349957e-01 
       1.793244334403e-01       3.930674970834e-01 
       1.853212618387e-01       3.792202138671e-01 
       1.915186043438e-01       3.643293253848e-01 
       1.979231902264e-01       3.463184161460e-01 
       2.045419531355e-01       3.249149945139e-01 
       2.113820727907e-01       3.016976802240e-01 
       2.184510241392e-01       2.791606907151e-01 
       2.257566348590e-01       2.594712685135e-01 
       2.333071522061e-01       2.437234448059e-01 
       2.411113203738e-01       2.315407567429e-01 
       2.491784697558e-01       2.211538150011e-01 
       2.575186198216e-01       2.104119043185e-01 
       2.661425977175e-01       1.980831818182e-01 
       2.750621752533e-01       1.844289370988e-01 
       2.842902276420e-01       1.709554395129e-01 
       2.938409182814e-01       1.592858904711e-01 
       3.037299150763e-01       1.498306734120e-01 
       3.139746453704e-01       1.417220404061e-01 
       3.245945986384e-01       1.336567654459e-01 
       3.356116888317e-01       1.249288000021e-01 
       3.470506919522e-01       1.160519109178e-01 
       3.589397793903e-01       1.079524896590e-01 
       3.713111743434e-01       1.010334403624e-01 
       3.842019680016e-01       9.474681687630e-02 
       3.976551452949e-01       8.843883463151e-02 
       4.117208885985e-01       8.208514787438e-02 
       4.264582545434e-01       7.615701763739e-02 
       4.419373581600e-01       7.081927495318e-02 
       4.582422565474e-01       6.579898778864e-02 
       4.754748117013e-01       6.083655281132e-02 
       4.937599462750e-01       5.609329183350e-02 
       5.132529154734e-01       5.171975232290e-02 
       5.341495508456e-01       4.751605586079e-02 
       5.567009681437e-01       4.344581550810e-02 
       5.812351068128e-01       3.959686886398e-02 
       6.081889018991e-01       3.588627645937e-02 
       6.381571986869e-01       3.230062185891e-02 
       6.719680157595e-01       2.883960049058e-02 
       7.107980430614e-01       2.546863473943e-02 
       7.563432000599e-01       2.217949254258e-02 
       8.110382507288e-01       1.896439206425e-02 
       8.782180910137e-01       1.584112918899e-02 
       9.618344028334e-01       1.287376517085e-02 
       1.065122976209e+00       1.017973504077e-02 
       1.188861021489e+00       7.884972658487e-03 
       1.331974042180e+00       6.038956159322e-03 
       1.494067066756e+00       4.601046211473e-03 
       1.676302948959e+00       3.495034550738e-03 
       1.880835468917e+00       2.648668275970e-03 
       2.110331571097e+00       2.002922578498e-03 
       2.367830942715e+00       1.511507838015e-03 
       2.656750013695e+00       1.138443135793e-03 
       2.980922543821e+00       8.558601262949e-04 
       3.344650105012e+00       6.422820247514e-04 
       3.752759141007e+00       4.811885655857e-04 
       4.210665010760e+00       3.599120326581e-04 
       4.724443846956e+00       2.687912883058e-04 
       5.300913182598e+00       2.004409830358e-04 
       5.947722415527e+00       1.492568974487e-04 
       6.673454311287e+00       1.109901465965e-04 
       7.487738891205e+00       8.242666189176e-05 
       8.401381216927e+00       6.113566755849e-05 
       9.426504767018e+00       4.528661367015e-05 
       1.057671230816e+01       3.350566683713e-05 
       1.186726639560e+01       2.475950398344e-05 
       1.331529189798e+01       1.827445633133e-05 
       1.494000323395e+01       1.347175331092e-05 
       1.676295933582e+01       9.918869805053e-06 
       1.880834972351e+01       7.293665545880e-06 
       2.110331548474e+01       5.355971761906e-06 
       2.367830942083e+01       3.927285000214e-06 
       2.656750013685e+01       2.875048082622e-06 
       2.980922543821e+01       2.100804542846e-06 
       3.344650105012e+01       1.531775922830e-06 
       3.752759141006e+01       1.114049312025e-06 
       4.210665010760e+01       8.077218861380e-07 
       4.724443846956e+01       5.833961231540e-07 
       5.300913182598e+01       4.193489213954e-07 
       5.947722415527e+01       2.996013366366e-07 
       6.673454311287e+01       2.123710180657e-07 
       7.487738891205e+01       1.490074822477e-07 
       8.401381216927e+01       1.031604237330e-07 
       9.426504767018e+01       7.016606682664e-08 
       1.057671230816e+02       4.661276218642e-08 
