# Matter power spectrum P(k) at redshift z=99
# for k=1.04206e-05 to 105.767 h/Mpc,
# number of wavenumbers equal to 192
#    1:k (h/Mpc)              2:P (Mpc/h)^3        
       1.042057218184e-05       7.036260929815e-03 
       1.169207429241e-05       7.864016109417e-03 
       1.311872312515e-05       8.789148142653e-03 
       1.471944944330e-05       9.823114227677e-03 
       1.651549391254e-05       1.097871819723e-02 
       1.853068895179e-05       1.227026615716e-02 
       2.079177497483e-05       1.371375238127e-02 
       2.332875521946e-05       1.532704927150e-02 
       2.617529387212e-05       1.713013403825e-02 
       2.936916277130e-05       1.914533011402e-02 
       3.295274261680e-05       2.139759139910e-02 
       3.697358533591e-05       2.391480136038e-02 
       4.148504506860e-05       2.672812600904e-02 
       4.654698614451e-05       2.987239549950e-02 
       5.222657744628e-05       3.338653471038e-02 
       5.859918369976e-05       3.731404484177e-02 
       6.574936551816e-05       4.170354103868e-02 
       7.377200147002e-05       4.660934852186e-02 
       8.277354706016e-05       5.209217843961e-02 
       9.287344732953e-05       5.821986952190e-02 
       1.042057218184e-04       6.506822426906e-02 
       1.169207429241e-04       7.272193812366e-02 
       1.311872312515e-04       8.127563721923e-02 
       1.471944944330e-04       9.083503009672e-02 
       1.651549391254e-04       1.015181935318e-01 
       1.853068895179e-04       1.134570015434e-01 
       2.079177497483e-04       1.267987049508e-01 
       2.332875521946e-04       1.417076918047e-01 
       2.617529387212e-04       1.583674216603e-01 
       2.936916277130e-04       1.769825661319e-01 
       3.295274261680e-04       1.977813491903e-01 
       3.697358533591e-04       2.210181081058e-01 
       4.148504506860e-04       2.469760655808e-01 
       4.654698614451e-04       2.759703106565e-01 
       5.222657744628e-04       3.083509592087e-01 
       5.859918369976e-04       3.445064540525e-01 
       6.574936551816e-04       3.848669203921e-01 
       7.377200147002e-04       4.299074567649e-01 
       8.277354706016e-04       4.801511870730e-01 
       9.287344732953e-04       5.361717747534e-01 
       1.042057218184e-03       5.985950254674e-01 
       1.169207429241e-03       6.680990084105e-01 
       1.311872312515e-03       7.454119173604e-01 
       1.471944944330e-03       8.313216520520e-01 
       1.651549391254e-03       9.266333534433e-01 
       1.853068895179e-03       1.032173776634e+00 
       2.079177497483e-03       1.148765179351e+00 
       2.332875521946e-03       1.277186728326e+00 
       2.617529387212e-03       1.418123334110e+00 
       2.936916277130e-03       1.572096674775e+00 
       3.295274261680e-03       1.739376798680e+00 
       3.697358533591e-03       1.919873492443e+00 
       4.148504506860e-03       2.113010516556e+00 
       4.654698614451e-03       2.317593838555e+00 
       5.222657744628e-03       2.531687169285e+00 
       5.859918369976e-03       2.752523278213e+00 
       6.574936551816e-03       2.976481699346e+00 
       7.377200147002e-03       3.199134857401e+00 
       8.277354706016e-03       3.415370818371e+00 
       9.287344732953e-03       3.619513183924e+00 
       1.042057218184e-02       3.805351012947e+00 
       1.169207429241e-02       3.965988235211e+00 
       1.311872312515e-02       4.093620127503e+00 
       1.471944944329e-02       4.179527990803e+00 
       1.651549391202e-02       4.214690503127e+00 
       1.853068892068e-02       4.190950563116e+00 
       2.079177387373e-02       4.102321700594e+00 
       2.332873074132e-02       3.946350566441e+00 
       2.617493570260e-02       3.726112445722e+00 
       2.936555805635e-02       3.452313079013e+00 
       3.292682347815e-02       3.144896188164e+00 
       3.683709330358e-02       2.833928398750e+00 
       4.095543211618e-02       2.555440841252e+00 
       4.502448509192e-02       2.335489171282e+00 
       4.884708991234e-02       2.175214004785e+00 
       5.239007941194e-02       2.059481291463e+00 
       5.570651898045e-02       1.972052976403e+00 
       5.886102379382e-02       1.900943606923e+00 
       6.190687314325e-02       1.837906496042e+00 
       6.488442645362e-02       1.777316930658e+00 
       6.782403073702e-02       1.715424580241e+00 
       7.074891559932e-02       1.649915233331e+00 
       7.367733710877e-02       1.579669265598e+00 
       7.662405936252e-02       1.504590216820e+00 
       7.960136626090e-02       1.425473269182e+00 
       8.261975780275e-02       1.343820536619e+00 
       8.568843639560e-02       1.261643522883e+00 
       8.881565226857e-02       1.181217701900e+00 
       9.200895293480e-02       1.104829300679e+00 
       9.527536616595e-02       1.034525238894e+00 
       9.862153605116e-02       9.718952078434e-01 
       1.020538253516e-01       9.178974969851e-01 
       1.055783932188e-01       8.727569863492e-01 
       1.092012546125e-01       8.359138765946e-01 
       1.129283259241e-01       8.060436322713e-01 
       1.167654600782e-01       7.811483955110e-01 
       1.207184735361e-01       7.587257838372e-01 
       1.247931670502e-01       7.360790542151e-01 
       1.289953416147e-01       7.107444335780e-01 
       1.333308107853e-01       6.809724531810e-01 
       1.378054103573e-01       6.461607044657e-01 
       1.424250062616e-01       6.070572589532e-01 
       1.471955014621e-01       5.656346579613e-01 
       1.521228425855e-01       5.246219533518e-01 
       1.572130269831e-01       4.868426679694e-01 
       1.624721109113e-01       4.544857101526e-01 
       1.679062195059e-01       4.285655040812e-01 
       1.735215592257e-01       4.086757322703e-01 
       1.793244334403e-01       3.930648894023e-01 
       1.853212618387e-01       3.792177490254e-01 
       1.915186043438e-01       3.643270378303e-01 
       1.979231902264e-01       3.463164505842e-01 
       2.045419531355e-01       3.249122777949e-01 
       2.113820727907e-01       3.016948979837e-01 
       2.184510241392e-01       2.791578537911e-01 
       2.257566348590e-01       2.594681672260e-01 
       2.333071522061e-01       2.437205276215e-01 
       2.411113203738e-01       2.315376966625e-01 
       2.491784697558e-01       2.211504587736e-01 
       2.575186198216e-01       2.104085194909e-01 
       2.661425977175e-01       1.980799978308e-01 
       2.750621752533e-01       1.844252438713e-01 
       2.842902276420e-01       1.709518201981e-01 
       2.938409182814e-01       1.592822382467e-01 
       3.037299150763e-01       1.498266780073e-01 
       3.139746453704e-01       1.417182362283e-01 
       3.245945986384e-01       1.336527459334e-01 
       3.356116888317e-01       1.249248055772e-01 
       3.470506919522e-01       1.160475915560e-01 
       3.589397793903e-01       1.079483855098e-01 
       3.713111743434e-01       1.010293419018e-01 
       3.842019680016e-01       9.474210065818e-02 
       3.976551452949e-01       8.843443496223e-02 
       4.117208885985e-01       8.208063168074e-02 
       4.264582545434e-01       7.615229509200e-02 
       4.419373581600e-01       7.081443199146e-02 
       4.582422565474e-01       6.579398006608e-02 
       4.754748117013e-01       6.083140339587e-02 
       4.937599462750e-01       5.608809001884e-02 
       5.132529154734e-01       5.171441026102e-02 
       5.341495508456e-01       4.751048103057e-02 
       5.567009681437e-01       4.344023460645e-02 
       5.812351068128e-01       3.959100518973e-02 
       6.081889018991e-01       3.588028815234e-02 
       6.381571986869e-01       3.229446840274e-02 
       6.719680157595e-01       2.883325673612e-02 
       7.107980430614e-01       2.546196437030e-02 
       7.563432000599e-01       2.217268906793e-02 
       8.110382507288e-01       1.895727734436e-02 
       8.782180910137e-01       1.583366715083e-02 
       9.618344028334e-01       1.286591281385e-02 
       1.065122976209e+00       1.017139451485e-02 
       1.188861021489e+00       7.876023562877e-03 
       1.331974042180e+00       6.029452282088e-03 
       1.494067066756e+00       4.590856849753e-03 
       1.676302948959e+00       3.484151135103e-03 
       1.880835468917e+00       2.637013534099e-03 
       2.110331571097e+00       1.990489251062e-03 
       2.367830942715e+00       1.498231278381e-03 
       2.656750013695e+00       1.124280055488e-03 
       2.980922543821e+00       8.407814981175e-04 
       3.344650105012e+00       6.262644289467e-04 
       3.752759141007e+00       4.642240208878e-04 
       4.210665010760e+00       3.420267099480e-04 
       4.724443846956e+00       2.500219299803e-04 
       5.300913182598e+00       1.808880059346e-04 
       5.947722415527e+00       1.290593763741e-04 
       6.673454311287e+00       9.035254075210e-05 
       7.487738891205e+00       6.161991156759e-05 
       8.401381216927e+00       4.051438340991e-05 
       9.426504767018e+00       2.528491253385e-05 
       1.057671230816e+01       1.461767412295e-05 
       1.186726639560e+01       7.510962077476e-06 
       1.331529189798e+01       3.163701835812e-06 
       1.494000323395e+01       8.905906149834e-07 
       1.676295933582e+01       6.191799441445e-08 
       1.880834972351e+01       8.317839187041e-08 
       2.110331548474e+01       4.233475267299e-07 
       2.367830942083e+01       6.849706734012e-07 
       2.656750013685e+01       6.813409955097e-07 
       2.980922543821e+01       4.548367088852e-07 
       3.344650105012e+01       1.869655018230e-07 
       3.752759141006e+01       3.142534221583e-08 
       4.210665010760e+01       1.983443128259e-10 
       4.724443846956e+01       9.173305396392e-09 
       5.300913182598e+01       6.029120520481e-09 
       5.947722415527e+01       3.953351951894e-10 
       6.673454311287e+01       2.200303252385e-10 
       7.487738891205e+01       5.325244833604e-11 
       8.401381216927e+01       8.635893819740e-11 
       9.426504767018e+01       3.670051402544e-11 
       1.057671230816e+02       6.360076641306e-12 
