# Matter power spectrum P(k) at redshift z=99
# for k=1.04206e-05 to 105.767 h/Mpc,
# number of wavenumbers equal to 192
#    1:k (h/Mpc)              2:P (Mpc/h)^3        
       1.042057218184e-05       7.036260929557e-03 
       1.169207429241e-05       7.864016109128e-03 
       1.311872312515e-05       8.789148142330e-03 
       1.471944944330e-05       9.823114227315e-03 
       1.651549391254e-05       1.097871819683e-02 
       1.853068895179e-05       1.227026615671e-02 
       2.079177497483e-05       1.371375238077e-02 
       2.332875521946e-05       1.532704927094e-02 
       2.617529387212e-05       1.713013403762e-02 
       2.936916277130e-05       1.914533011332e-02 
       3.295274261680e-05       2.139759139832e-02 
       3.697358533591e-05       2.391480135950e-02 
       4.148504506860e-05       2.672812600806e-02 
       4.654698614451e-05       2.987239549840e-02 
       5.222657744628e-05       3.338653470915e-02 
       5.859918369976e-05       3.731404484040e-02 
       6.574936551816e-05       4.170354103714e-02 
       7.377200147002e-05       4.660934852015e-02 
       8.277354706016e-05       5.209217843769e-02 
       9.287344732953e-05       5.821986951977e-02 
       1.042057218184e-04       6.506822426668e-02 
       1.169207429241e-04       7.272193812100e-02 
       1.311872312515e-04       8.127563721627e-02 
       1.471944944330e-04       9.083503009341e-02 
       1.651549391254e-04       1.015181935281e-01 
       1.853068895179e-04       1.134570015393e-01 
       2.079177497483e-04       1.267987049462e-01 
       2.332875521946e-04       1.417076917996e-01 
       2.617529387212e-04       1.583674216547e-01 
       2.936916277130e-04       1.769825661256e-01 
       3.295274261680e-04       1.977813491833e-01 
       3.697358533591e-04       2.210181080982e-01 
       4.148504506860e-04       2.469760655724e-01 
       4.654698614451e-04       2.759703106473e-01 
       5.222657744628e-04       3.083509591987e-01 
       5.859918369976e-04       3.445064540417e-01 
       6.574936551816e-04       3.848669203805e-01 
       7.377200147002e-04       4.299074567528e-01 
       8.277354706016e-04       4.801511870605e-01 
       9.287344732953e-04       5.361717747410e-01 
       1.042057218184e-03       5.985950254555e-01 
       1.169207429241e-03       6.680990084002e-01 
       1.311872312515e-03       7.454119173543e-01 
       1.471944944330e-03       8.313216520510e-01 
       1.651549391254e-03       9.266333534527e-01 
       1.853068895179e-03       1.032173776659e+00 
       2.079177497483e-03       1.148765179407e+00 
       2.332875521946e-03       1.277186728509e+00 
       2.617529387212e-03       1.418123334252e+00 
       2.936916277130e-03       1.572096674997e+00 
       3.295274261680e-03       1.739376799015e+00 
       3.697358533591e-03       1.919873492937e+00 
       4.148504506860e-03       2.113010517284e+00 
       4.654698614451e-03       2.317593857239e+00 
       5.222657744628e-03       2.531687179397e+00 
       5.859918369976e-03       2.752523280354e+00 
       6.574936551816e-03       2.976481702363e+00 
       7.377200147002e-03       3.199134861623e+00 
       8.277354706016e-03       3.415370824239e+00 
       9.287344732953e-03       3.619513192032e+00 
       1.042057218184e-02       3.805351165669e+00 
       1.169207429241e-02       3.965988840367e+00 
       1.311872312515e-02       4.093620147905e+00 
       1.471944944329e-02       4.179528423921e+00 
       1.651549391202e-02       4.214690539377e+00 
       1.853068892068e-02       4.190950366860e+00 
       2.079177387373e-02       4.102324927111e+00 
       2.332873074132e-02       3.946354029774e+00 
       2.617493570260e-02       3.726104249380e+00 
       2.936555805635e-02       3.452313204370e+00 
       3.292682347815e-02       3.144902141063e+00 
       3.683709330358e-02       2.833928585545e+00 
       4.095543211618e-02       2.555438800959e+00 
       4.502448509192e-02       2.335489876477e+00 
       4.884708991234e-02       2.175212940625e+00 
       5.239007941194e-02       2.059481641666e+00 
       5.570651898045e-02       1.972052930128e+00 
       5.886102379382e-02       1.900944016922e+00 
       6.190687314325e-02       1.837905553810e+00 
       6.488442645362e-02       1.777317743036e+00 
       6.782403073702e-02       1.715425100218e+00 
       7.074891559932e-02       1.649916910238e+00 
       7.367733710877e-02       1.579670257747e+00 
       7.662405936252e-02       1.504590729812e+00 
       7.960136626090e-02       1.425474439519e+00 
       8.261975780275e-02       1.343822023423e+00 
       8.568843639560e-02       1.261644776655e+00 
       8.881565226857e-02       1.181218175289e+00 
       9.200895293480e-02       1.104830068579e+00 
       9.527536616595e-02       1.034526034440e+00 
       9.862153605116e-02       9.718994912712e-01 
       1.020538253516e-01       9.178991311947e-01 
       1.055783932188e-01       8.727580516797e-01 
       1.092012546125e-01       8.359150497625e-01 
       1.129283259241e-01       8.060446035537e-01 
       1.167654600782e-01       7.811493105030e-01 
       1.207184735361e-01       7.587268538350e-01 
       1.247931670502e-01       7.360803684070e-01 
       1.289953416147e-01       7.107456137630e-01 
       1.333308107853e-01       6.809737574020e-01 
       1.378054103573e-01       6.461620244832e-01 
       1.424250062616e-01       6.070584253641e-01 
       1.471955014621e-01       5.656354284476e-01 
       1.521228425855e-01       5.246235600298e-01 
       1.572130269831e-01       4.868440775404e-01 
       1.624721109113e-01       4.544870974930e-01 
       1.679062195059e-01       4.285670007608e-01 
       1.735215592257e-01       4.086770123955e-01 
       1.793244334403e-01       3.930665010450e-01 
       1.853212618387e-01       3.792193411934e-01 
       1.915186043438e-01       3.643290252259e-01 
       1.979231902264e-01       3.463182525751e-01 
       2.045419531355e-01       3.249144172578e-01 
       2.113820727907e-01       3.016968214501e-01 
       2.184510241392e-01       2.791598189542e-01 
       2.257566348590e-01       2.594701804640e-01 
       2.333071522061e-01       2.437225997798e-01 
       2.411113203738e-01       2.315398244768e-01 
       2.491784697558e-01       2.211526852196e-01 
       2.575186198216e-01       2.104110150978e-01 
       2.661425977175e-01       1.980822358812e-01 
       2.750621752533e-01       1.844277027704e-01 
       2.842902276420e-01       1.709543974836e-01 
       2.938409182814e-01       1.592848555560e-01 
       3.037299150763e-01       1.498295184140e-01 
       3.139746453704e-01       1.417208941935e-01 
       3.245945986384e-01       1.336556746806e-01 
       3.356116888317e-01       1.249276774599e-01 
       3.470506919522e-01       1.160508475065e-01 
       3.589397793903e-01       1.079514258029e-01 
       3.713111743434e-01       1.010325410918e-01 
       3.842019680016e-01       9.474545347843e-02 
       3.976551452949e-01       8.843760602936e-02 
       4.117208885985e-01       8.208398159156e-02 
       4.264582545434e-01       7.615579849651e-02 
       4.419373581600e-01       7.081799609092e-02 
       4.582422565474e-01       6.579768060323e-02 
       4.754748117013e-01       6.083523926797e-02 
       4.937599462750e-01       5.609199081455e-02 
       5.132529154734e-01       5.171840096005e-02 
       5.341495508456e-01       4.751469295294e-02 
       5.567009681437e-01       4.344443001412e-02 
       5.812351068128e-01       3.959544270243e-02 
       6.081889018991e-01       3.588485290154e-02 
       6.381571986869e-01       3.229917814088e-02 
       6.719680157595e-01       2.883813927803e-02 
       7.107980430614e-01       2.546715294158e-02 
       7.563432000599e-01       2.217799934614e-02 
       8.110382507288e-01       1.896287211788e-02 
       8.782180910137e-01       1.583958698573e-02 
       9.618344028334e-01       1.287220466803e-02 
       1.065122976209e+00       1.017815469566e-02 
       1.188861021489e+00       7.883371961206e-03 
       1.331974042180e+00       6.037345920516e-03 
       1.494067066756e+00       4.599431915503e-03 
       1.676302948959e+00       3.493418004982e-03 
       1.880835468917e+00       2.647055045326e-03 
       2.110331571097e+00       2.001307184261e-03 
       2.367830942715e+00       1.509905649812e-03 
       2.656750013695e+00       1.136866157619e-03 
       2.980922543821e+00       8.543043944233e-04 
       3.344650105012e+00       6.407487388376e-04 
       3.752759141007e+00       4.796779277443e-04 
       4.210665010760e+00       3.584350189903e-04 
       4.724443846956e+00       2.673417371626e-04 
       5.300913182598e+00       1.990236915813e-04 
       5.947722415527e+00       1.478760164033e-04 
       6.673454311287e+00       1.096475395210e-04 
       7.487738891205e+00       8.112271852329e-05 
       8.401381216927e+00       5.987109598753e-05 
       9.426504767018e+00       4.406437697284e-05 
       1.057671230816e+01       3.232594502143e-05 
       1.186726639560e+01       2.362377691526e-05 
       1.331529189798e+01       1.718379959035e-05 
       1.494000323395e+01       1.242742922542e-05 
       1.676295933582e+01       8.922614544421e-06 
       1.880834972351e+01       6.347381410658e-06 
       2.110331548474e+01       4.461931018531e-06 
       2.367830942083e+01       3.088278331954e-06 
       2.656750013685e+01       2.094387589586e-06 
       2.980922543821e+01       1.382408660352e-06 
       3.344650105012e+01       8.798168108109e-07 
       3.752759141006e+01       5.328300977422e-07 
       4.210665010760e+01       3.011703455748e-07 
       4.724443846956e+01       1.542190953385e-07 
       5.300913182598e+01       6.810196509988e-08 
       5.947722415527e+01       2.363039814950e-08 
       6.673454311287e+01       5.140337070952e-09 
       7.487738891205e+01       2.396092232375e-10 
       8.401381216927e+01       2.396477518630e-10 
       9.426504767018e+01       5.841040205893e-10 
       1.057671230816e+02       2.881941897712e-10 
